# Version 1.00
#
freq[Hz];re:Trc1_S11;im:Trc1_S11;re:Trc2_S21;im:Trc2_S21;
2.400000000000000E+009;1.607133299112320E-001;5.709410086274147E-002;1.736490521579981E-003;2.631878247484565E-003;
2.400166666666667E+009;1.609370261430740E-001;5.547717958688736E-002;1.785889733582735E-003;2.618743339553475E-003;
2.400333333333334E+009;1.608039885759354E-001;5.367657542228699E-002;1.854046364314854E-003;2.753919688984752E-003;
2.400500000000000E+009;1.609603315591812E-001;5.206808447837830E-002;2.126410370692611E-003;2.659397665411234E-003;
2.400666666666667E+009;1.609756052494049E-001;4.984231665730476E-002;2.098393859341741E-003;2.770994557067752E-003;
2.400833333333334E+009;1.614343822002411E-001;4.823390766978264E-002;2.386260312050581E-003;2.726892009377480E-003;
2.401000000000000E+009;1.615899056196213E-001;4.643879458308220E-002;2.469894941896200E-003;2.750798361375928E-003;
2.401166666666667E+009;1.617749184370041E-001;4.431154206395149E-002;2.496312372386456E-003;2.678023185580969E-003;
2.401333333333334E+009;1.620523780584335E-001;4.239330440759659E-002;2.615437842905521E-003;2.673456445336342E-003;
2.401500000000000E+009;1.625740081071854E-001;4.050839319825172E-002;2.830621320754290E-003;2.505428623408079E-003;
2.401666666666667E+009;1.627622991800308E-001;3.871286660432816E-002;2.830954501405358E-003;2.563725691288710E-003;
2.401833333333334E+009;1.634054332971573E-001;3.687614947557449E-002;3.073482308536768E-003;2.447279635816813E-003;
2.402000000000000E+009;1.636395752429962E-001;3.515832498669624E-002;3.322923323139548E-003;2.387556945905089E-003;
2.402166666666667E+009;1.641586422920227E-001;3.321512416005135E-002;3.349384758621454E-003;2.158772433176637E-003;
2.402333333333334E+009;1.645233631134033E-001;3.162920847535133E-002;3.391231875866652E-003;2.272759331390262E-003;
2.402500000000000E+009;1.651795357465744E-001;3.004237450659275E-002;3.454456338658929E-003;2.019753213971853E-003;
2.402666666666667E+009;1.658059358596802E-001;2.853743173182011E-002;3.635370172560215E-003;1.820901990868151E-003;
2.402833333333334E+009;1.664331704378128E-001;2.701827697455883E-002;3.734710859134793E-003;1.690259552560747E-003;
2.403000000000000E+009;1.670595705509186E-001;2.551895007491112E-002;3.924064803868532E-003;1.706488430500031E-003;
2.403166666666667E+009;1.678763031959534E-001;2.411065064370632E-002;3.944567404687405E-003;1.428853371180594E-003;
2.403333333333334E+009;1.686026751995087E-001;2.271436341106892E-002;4.033788107335568E-003;1.277058268897235E-003;
2.403500000000000E+009;1.691208332777023E-001;2.144905738532543E-002;4.020425491034985E-003;9.067466598935425E-004;
2.403666666666667E+009;1.699859499931335E-001;2.014429122209549E-002;4.076285753399134E-003;9.627242689020932E-004;
2.403833333333334E+009;1.708158701658249E-001;1.905716583132744E-002;4.172880668193102E-003;7.651096093468368E-004;
2.404000000000000E+009;1.715697348117828E-001;1.804012991487980E-002;4.053553100675345E-003;5.278517492115498E-004;
2.404166666666667E+009;1.722509860992432E-001;1.691154949367046E-002;3.989583346992731E-003;4.313218232709914E-004;
2.404333333333334E+009;1.727727949619293E-001;1.609169319272041E-002;4.072158597409725E-003;2.497863897588104E-004;
2.404500000000000E+009;1.734665930271149E-001;1.516362465918064E-002;3.991346806287766E-003;2.084196457872167E-004;
2.404666666666667E+009;1.741315424442291E-001;1.431930903345347E-002;4.058741498738527E-003;-8.827388955978677E-005;
2.404833333333334E+009;1.748063862323761E-001;1.362583599984646E-002;3.926551900804043E-003;-2.501522249076515E-004;
2.405000000000000E+009;1.753689050674439E-001;1.294199749827385E-002;3.799798199906945E-003;-2.529889170546085E-004;
2.405166666666667E+009;1.760495901107788E-001;1.226681377738714E-002;3.533739130944014E-003;-4.713966918643564E-004;
2.405333333333334E+009;1.765286326408386E-001;1.176613755524159E-002;3.746452974155545E-003;-4.366970097180456E-004;
2.405500000000000E+009;1.769193857908249E-001;1.109992899000645E-002;3.602245822548866E-003;-6.010344950482249E-004;
2.405666666666667E+009;1.774848103523254E-001;1.075150165706873E-002;3.591537475585938E-003;-5.057462258264422E-004;
2.405833333333334E+009;1.775386035442352E-001;1.040755212306976E-002;3.483757143840194E-003;-5.244940402917564E-004;
2.406000000000000E+009;1.780496984720230E-001;9.852245450019836E-003;3.622211050242186E-003;-6.805289303883910E-004;
2.406166666666667E+009;1.780230253934860E-001;9.671933017671108E-003;3.549423767253757E-003;-5.803245585411787E-004;
2.406333333333334E+009;1.785260140895844E-001;9.231653064489365E-003;3.505375934764743E-003;-7.554310723207891E-004;
2.406500000000000E+009;1.784211546182632E-001;8.823381736874580E-003;3.303863108158112E-003;-8.002473623491824E-004;
2.406666666666667E+009;1.784131824970245E-001;8.425690233707428E-003;3.425398841500282E-003;-8.025653660297394E-004;
2.406833333333334E+009;1.785213500261307E-001;7.958329282701016E-003;3.525605192407966E-003;-6.708589498884976E-004;
2.407000000000000E+009;1.784290373325348E-001;7.601154968142510E-003;3.472066018730402E-003;-9.756355429999530E-004;
2.407166666666667E+009;1.784669458866119E-001;7.192412391304970E-003;3.337334841489792E-003;-1.152770244516432E-003;
2.407333333333334E+009;1.781219989061356E-001;6.632542703300715E-003;3.524777712300420E-003;-1.017539878375828E-003;
2.407500000000000E+009;1.778616458177567E-001;6.096264347434044E-003;3.465893212705851E-003;-1.083353301510215E-003;
2.407666666666667E+009;1.775773614645004E-001;5.526113789528608E-003;3.479045117273927E-003;-1.219234778545797E-003;
2.407833333333334E+009;1.771117448806763E-001;4.843567498028278E-003;3.408564487472177E-003;-1.331210252828896E-003;
2.408000000000000E+009;1.766808182001114E-001;3.886526916176081E-003;3.409037366509438E-003;-1.412887475453317E-003;
2.408166666666667E+009;1.762796044349670E-001;3.303319681435823E-003;3.388945711776614E-003;-1.419269712641835E-003;
2.408333333333334E+009;1.760265082120895E-001;2.486061071977019E-003;3.343554912135005E-003;-1.472198520787060E-003;
2.408500000000000E+009;1.753957122564316E-001;1.485356711782515E-003;3.330624662339687E-003;-1.703145564533770E-003;
2.408666666666667E+009;1.748821288347244E-001;3.080439346376807E-004;3.281534416601062E-003;-1.748918090015650E-003;
2.408833333333334E+009;1.743044555187225E-001;-5.792119191028178E-004;3.349119331687689E-003;-1.960021210834384E-003;
2.409000000000000E+009;1.736560165882111E-001;-1.842102385126054E-003;3.227770328521729E-003;-1.892524189315736E-003;
2.409166666666667E+009;1.731623858213425E-001;-3.025842830538750E-003;3.318411763757467E-003;-1.922848401591182E-003;
2.409333333333334E+009;1.727065145969391E-001;-4.354218021035194E-003;3.317926311865449E-003;-1.966709503903985E-003;
2.409500000000000E+009;1.719853579998016E-001;-5.877143703401089E-003;3.216621000319719E-003;-2.048159716650844E-003;
2.409666666666667E+009;1.713843941688538E-001;-7.072505075484514E-003;3.037918824702501E-003;-2.180600306019187E-003;
2.409833333333334E+009;1.707796752452850E-001;-8.652966469526291E-003;3.095555119216442E-003;-2.271011704578996E-003;
2.410000000000000E+009;1.703174710273743E-001;-1.030186563730240E-002;3.057998605072498E-003;-2.329175127670169E-003;
2.410166666666667E+009;1.698409169912338E-001;-1.164063345640898E-002;3.110556397587061E-003;-2.369763562455773E-003;
2.410333333333334E+009;1.693902462720871E-001;-1.340523548424244E-002;3.216454759240151E-003;-2.544933464378119E-003;
2.410500000000000E+009;1.689371019601822E-001;-1.527559384703636E-002;3.207461442798376E-003;-2.487942809239030E-003;
2.410666666666667E+009;1.685806661844254E-001;-1.713808253407478E-002;2.949616871774197E-003;-2.637672470882535E-003;
2.410833333333334E+009;1.684130728244782E-001;-1.880490407347679E-002;3.118016757071018E-003;-2.679186407476664E-003;
2.411000000000000E+009;1.682613044977188E-001;-2.050337381660938E-002;2.948837587609887E-003;-2.772385952994227E-003;
2.411166666666667E+009;1.679091900587082E-001;-2.266856282949448E-002;2.966148080304265E-003;-3.028268460184336E-003;
2.411333333333334E+009;1.678152531385422E-001;-2.449381723999977E-002;3.037629183381796E-003;-3.032732522115111E-003;
2.411500000000000E+009;1.676905453205109E-001;-2.621190249919891E-002;2.993382513523102E-003;-3.120764158666134E-003;
2.411666666666667E+009;1.679165065288544E-001;-2.822647802531719E-002;2.871531527489424E-003;-3.467769362032414E-003;
2.411833333333334E+009;1.678858697414398E-001;-2.986475639045239E-002;2.866251626983285E-003;-3.483584616333246E-003;
2.412000000000000E+009;1.681364923715591E-001;-3.192698210477829E-002;2.983748214319348E-003;-3.703188849613071E-003;
2.412166666666667E+009;1.681465357542038E-001;-3.386105969548225E-002;2.838655142113566E-003;-3.876622533425689E-003;
2.412333333333334E+009;1.685758233070374E-001;-3.543689101934433E-002;2.731213113293052E-003;-4.026128444820643E-003;
2.412500000000000E+009;1.688271760940552E-001;-3.736348450183868E-002;2.517010085284710E-003;-4.169360734522343E-003;
2.412666666666667E+009;1.692302376031876E-001;-3.918932378292084E-002;2.470660489052534E-003;-4.270925652235746E-003;
2.412833333333334E+009;1.694936156272888E-001;-4.098967835307121E-002;2.299848478287458E-003;-4.555777180939913E-003;
2.413000000000000E+009;1.698513031005859E-001;-4.264716058969498E-002;2.198200207203627E-003;-4.665523767471314E-003;
2.413166666666667E+009;1.703859269618988E-001;-4.418620094656944E-002;1.905240118503571E-003;-4.674006253480911E-003;
2.413333333333334E+009;1.708493828773499E-001;-4.577580094337463E-002;1.753604388795793E-003;-4.845933057367802E-003;
2.413500000000000E+009;1.712749451398850E-001;-4.742326214909554E-002;1.536173745989800E-003;-5.042260047048330E-003;
2.413666666666667E+009;1.719012856483460E-001;-4.884214699268341E-002;1.415002625435591E-003;-5.074872635304928E-003;
2.413833333333334E+009;1.722311079502106E-001;-5.005054548382759E-002;1.065243151970208E-003;-5.152696743607521E-003;
2.414000000000000E+009;1.727011948823929E-001;-5.149703100323677E-002;8.058461826294661E-004;-5.170252639800310E-003;
2.414166666666667E+009;1.733992099761963E-001;-5.276049301028252E-002;5.403860704973340E-004;-5.223256070166826E-003;
2.414333333333334E+009;1.737290471792221E-001;-5.370808765292168E-002;2.815183543134481E-004;-5.312130320817232E-003;
2.414500000000000E+009;1.744123399257660E-001;-5.477072671055794E-002;4.963465471519157E-005;-5.158885382115841E-003;
2.414666666666667E+009;1.747238785028458E-001;-5.568350106477737E-002;-5.483527274918743E-006;-5.255803931504488E-003;
2.414833333333334E+009;1.749821901321411E-001;-5.659333989024162E-002;-3.923549375031143E-004;-5.269670393317938E-003;
2.415000000000000E+009;1.755519807338715E-001;-5.733226239681244E-002;-6.750512984581292E-004;-5.191183183342218E-003;
2.415166666666667E+009;1.759254485368729E-001;-5.805260688066483E-002;-6.721779354847968E-004;-5.039538722485304E-003;
2.415333333333334E+009;1.761799156665802E-001;-5.870686843991280E-002;-1.049029291607440E-003;-5.021161865442991E-003;
2.415500000000000E+009;1.764660328626633E-001;-5.926898494362831E-002;-1.249318011105061E-003;-4.901475738734007E-003;
2.415666666666667E+009;1.766093224287033E-001;-5.964666604995728E-002;-1.415742910467088E-003;-4.794032778590918E-003;
2.415833333333334E+009;1.768282949924469E-001;-6.010421365499497E-002;-1.515543670393527E-003;-4.806621000170708E-003;
2.416000000000000E+009;1.767439842224121E-001;-6.065005809068680E-002;-1.678491709753871E-003;-4.750129766762257E-003;
2.416166666666667E+009;1.768836379051209E-001;-6.093248352408409E-002;-1.899925526231527E-003;-4.579729400575161E-003;
2.416333333333334E+009;1.766296625137329E-001;-6.124031543731690E-002;-2.104825340211391E-003;-4.454007372260094E-003;
2.416500000000000E+009;1.764245480298996E-001;-6.145849451422691E-002;-2.274903235957027E-003;-4.401551559567452E-003;
2.416666666666667E+009;1.760866343975067E-001;-6.159381568431854E-002;-2.412718487903476E-003;-4.320213105529547E-003;
2.416833333333334E+009;1.758994311094284E-001;-6.191840395331383E-002;-2.489814301952720E-003;-4.203852266073227E-003;
2.417000000000000E+009;1.751761138439179E-001;-6.206683441996574E-002;-2.434314927086234E-003;-3.953776787966490E-003;
2.417166666666667E+009;1.747526824474335E-001;-6.220443546772003E-002;-2.679164521396160E-003;-3.878140356391668E-003;
2.417333333333334E+009;1.741279959678650E-001;-6.231179460883141E-002;-2.776650479063392E-003;-3.821313614025712E-003;
2.417500000000000E+009;1.733963936567307E-001;-6.278965622186661E-002;-2.626434899866581E-003;-3.694218816235662E-003;
2.417666666666667E+009;1.727988421916962E-001;-6.278636306524277E-002;-2.682384336367250E-003;-3.621346550062299E-003;
2.417833333333334E+009;1.718179434537888E-001;-6.308134645223618E-002;-2.785403979942203E-003;-3.304782090708613E-003;
2.418000000000000E+009;1.708257198333740E-001;-6.356069445610046E-002;-3.048781072720885E-003;-3.342020092532039E-003;
2.418166666666667E+009;1.699683517217636E-001;-6.372494995594025E-002;-2.972135553136468E-003;-3.338813083246350E-003;
2.418333333333334E+009;1.691032201051712E-001;-6.420414894819260E-002;-3.138060215860605E-003;-3.108156612142921E-003;
2.418500000000000E+009;1.680062413215637E-001;-6.461403518915176E-002;-3.148507559671998E-003;-2.986975247040391E-003;
2.418666666666667E+009;1.669034212827683E-001;-6.510534882545471E-002;-3.174529643729329E-003;-3.084383439272642E-003;
2.418833333333334E+009;1.655806750059128E-001;-6.581495702266693E-002;-3.239571815356612E-003;-3.022485179826617E-003;
2.419000000000000E+009;1.644577234983444E-001;-6.620770692825317E-002;-3.293537069112063E-003;-2.675832482054830E-003;
2.419166666666667E+009;1.632836759090424E-001;-6.710417568683624E-002;-3.314234549179673E-003;-2.888623857870698E-003;
2.419333333333334E+009;1.619480401277542E-001;-6.748232990503311E-002;-3.320817835628986E-003;-2.571830293163657E-003;
2.419500000000000E+009;1.608315855264664E-001;-6.858613342046738E-002;-3.597504924982786E-003;-2.657971577718854E-003;
2.419666666666667E+009;1.596955060958862E-001;-6.951848417520523E-002;-3.586841979995370E-003;-2.442242577672005E-003;
2.419833333333334E+009;1.584189385175705E-001;-7.046407461166382E-002;-3.718261374160647E-003;-2.325576264411211E-003;
2.420000000000000E+009;1.573241502046585E-001;-7.147247344255447E-002;-3.679002169519663E-003;-2.174688968807459E-003;
2.420166666666667E+009;1.560443043708801E-001;-7.261011749505997E-002;-3.822458442300558E-003;-2.107358071953058E-003;
2.420333333333334E+009;1.550360620021820E-001;-7.391508668661118E-002;-3.911116160452366E-003;-2.030240138992667E-003;
2.420500000000000E+009;1.540830731391907E-001;-7.494933903217316E-002;-3.948851954191923E-003;-1.803233171813190E-003;
2.420666666666667E+009;1.530196964740753E-001;-7.624585181474686E-002;-3.919511567801237E-003;-1.686675357632339E-003;
2.420833333333334E+009;1.520912498235703E-001;-7.763148099184036E-002;-4.034349694848061E-003;-1.583820558153093E-003;
2.421000000000000E+009;1.510186642408371E-001;-7.915883511304855E-002;-4.008552990853787E-003;-1.473695156164467E-003;
2.421166666666667E+009;1.504936963319778E-001;-8.065825700759888E-002;-3.989811055362225E-003;-1.373016508296132E-003;
2.421333333333334E+009;1.498545408248901E-001;-8.246490359306335E-002;-3.979423549026251E-003;-1.272269990295172E-003;
2.421500000000000E+009;1.490339189767838E-001;-8.382892608642578E-002;-4.006141796708107E-003;-1.010083942674100E-003;
2.421666666666667E+009;1.485699862241745E-001;-8.560186624526978E-002;-4.097376950085163E-003;-9.548093657940626E-004;
2.421833333333334E+009;1.480879187583923E-001;-8.725703507661820E-002;-3.946521785110235E-003;-8.086254820227623E-004;
2.422000000000000E+009;1.475768387317658E-001;-8.876688033342362E-002;-4.064394626766443E-003;-7.686535245738924E-004;
2.422166666666667E+009;1.473276615142822E-001;-9.075932204723358E-002;-3.967131488025188E-003;-5.113165825605393E-004;
2.422333333333334E+009;1.471890807151794E-001;-9.225545823574066E-002;-4.122667945921421E-003;-3.066095523536205E-004;
2.422500000000000E+009;1.468070298433304E-001;-9.381336718797684E-002;-3.901007818058133E-003;-2.644914202392101E-004;
2.422666666666667E+009;1.467432826757431E-001;-9.566979855298996E-002;-3.961666021496058E-003;-1.576974900672212E-004;
2.422833333333334E+009;1.466489583253861E-001;-9.736724942922592E-002;-3.855500835925341E-003;-9.716285421745852E-005;
2.423000000000000E+009;1.466570943593979E-001;-9.904818981885910E-002;-3.835443174466491E-003;-2.172676431655418E-005;
2.423166666666667E+009;1.469119191169739E-001;-1.006273180246353E-001;-4.037545993924141E-003;1.569761079736054E-004;
2.423333333333334E+009;1.470613628625870E-001;-1.021120399236679E-001;-3.985262941569090E-003;2.822443493641913E-004;
2.423500000000000E+009;1.472129076719284E-001;-1.037956103682518E-001;-3.853702684864402E-003;2.459748066030443E-004;
2.423666666666667E+009;1.474922895431519E-001;-1.052993983030319E-001;-3.910183440893889E-003;3.139703185297549E-004;
2.423833333333334E+009;1.479351073503494E-001;-1.069023534655571E-001;-3.855175105854869E-003;5.396017804741859E-004;
2.424000000000000E+009;1.480433046817780E-001;-1.080610677599907E-001;-3.862631972879171E-003;7.770510856062174E-004;
2.424166666666667E+009;1.483769863843918E-001;-1.095309555530548E-001;-3.862948855385184E-003;7.812279509380460E-004;
2.424333333333334E+009;1.488684564828873E-001;-1.107897385954857E-001;-3.852976951748133E-003;7.999219233170152E-004;
2.424500000000000E+009;1.492851823568344E-001;-1.119184419512749E-001;-3.838855074718595E-003;1.016754657030106E-003;
2.424666666666667E+009;1.497999429702759E-001;-1.128887087106705E-001;-3.643406322225928E-003;1.218147575855255E-003;
2.424833333333334E+009;1.499936729669571E-001;-1.139950454235077E-001;-3.698257962241769E-003;1.125372597016394E-003;
2.425000000000000E+009;1.505808681249619E-001;-1.149186342954636E-001;-3.542605787515640E-003;1.426238915883005E-003;
2.425166666666667E+009;1.506538838148117E-001;-1.157776936888695E-001;-3.596397116780281E-003;1.400932436808944E-003;
2.425333333333334E+009;1.510131508111954E-001;-1.166361793875694E-001;-3.304780460894108E-003;1.697310013696551E-003;
2.425500000000000E+009;1.513700932264328E-001;-1.173396706581116E-001;-3.351738210767508E-003;1.778908306732774E-003;
2.425666666666667E+009;1.514322906732559E-001;-1.180234104394913E-001;-3.224768443033099E-003;1.918030902743340E-003;
2.425833333333334E+009;1.517681330442429E-001;-1.184905767440796E-001;-3.184546949341893E-003;1.866257051005960E-003;
2.426000000000000E+009;1.518130749464035E-001;-1.191154047846794E-001;-3.117129439488053E-003;2.018395112827420E-003;
2.426166666666667E+009;1.520206332206726E-001;-1.196037083864212E-001;-2.903558081015945E-003;2.208196558058262E-003;
2.426333333333334E+009;1.518612802028656E-001;-1.197938919067383E-001;-2.744763391092420E-003;2.254060003906488E-003;
2.426500000000000E+009;1.519842445850372E-001;-1.201614513993263E-001;-2.717013703659177E-003;2.199386712163687E-003;
2.426666666666667E+009;1.519902199506760E-001;-1.204020157456398E-001;-2.517538610845804E-003;2.250135643407702E-003;
2.426833333333334E+009;1.517284363508225E-001;-1.206044182181358E-001;-2.378097968176007E-003;2.304270630702376E-003;
2.427000000000000E+009;1.513865292072296E-001;-1.209860518574715E-001;-2.253479091450572E-003;2.336295554414392E-003;
2.427166666666667E+009;1.510282158851624E-001;-1.209262683987618E-001;-2.220999449491501E-003;2.236400498077273E-003;
2.427333333333334E+009;1.504730433225632E-001;-1.210751831531525E-001;-2.073274226859212E-003;2.354342257604003E-003;
2.427500000000000E+009;1.501668989658356E-001;-1.212910413742065E-001;-2.033276017755270E-003;2.373930299654603E-003;
2.427666666666667E+009;1.493314504623413E-001;-1.214228570461273E-001;-1.957938773557544E-003;2.399007091298699E-003;
