# Version 1.00
#
freq[Hz];re:Trc1_S11;im:Trc1_S11;re:Trc2_S21;im:Trc2_S21;
2.400000000000000E+009;1.607635766267777E-001;5.721297860145569E-002;2.019493374973536E-003;2.477303147315979E-003;
2.400166666666667E+009;1.607434153556824E-001;5.548452958464623E-002;1.937084249220789E-003;2.560447668656707E-003;
2.400333333333334E+009;1.607403606176376E-001;5.371484905481339E-002;2.111383015289903E-003;2.592214150354266E-003;
2.400500000000000E+009;1.610319763422012E-001;5.189869925379753E-002;2.396901138126850E-003;2.642654580995441E-003;
2.400666666666667E+009;1.611252874135971E-001;5.002273619174957E-002;2.441174350678921E-003;2.532851183786988E-003;
2.400833333333334E+009;1.614036858081818E-001;4.815715551376343E-002;2.562366658821702E-003;2.643565414473414E-003;
2.401000000000000E+009;1.616728454828262E-001;4.638933762907982E-002;2.580391708761454E-003;2.501793904229999E-003;
2.401166666666667E+009;1.617081314325333E-001;4.439523071050644E-002;2.691821660846472E-003;2.390537876635790E-003;
2.401333333333334E+009;1.620287597179413E-001;4.241561144590378E-002;2.775315893813968E-003;2.500324277207255E-003;
2.401500000000000E+009;1.625786274671555E-001;4.053314030170441E-002;3.032098757103086E-003;2.471000188961625E-003;
2.401666666666667E+009;1.628364026546478E-001;3.874943777918816E-002;3.179272171109915E-003;2.235891297459602E-003;
2.401833333333334E+009;1.633699238300324E-001;3.674720600247383E-002;3.504210151731968E-003;2.308184048160911E-003;
2.402000000000000E+009;1.635130643844605E-001;3.510879725217819E-002;3.665964351966977E-003;2.122094156220555E-003;
2.402166666666667E+009;1.639826297760010E-001;3.321507200598717E-002;3.500019898638129E-003;2.158839954063296E-003;
2.402333333333334E+009;1.645666062831879E-001;3.151094540953636E-002;3.782024839892983E-003;2.088113455101848E-003;
2.402500000000000E+009;1.652775257825851E-001;2.991765178740025E-002;4.044429864734411E-003;1.772262272424996E-003;
2.402666666666667E+009;1.657597273588181E-001;2.838724292814732E-002;4.016347229480743E-003;1.897006295621395E-003;
2.402833333333334E+009;1.664053946733475E-001;2.684104628860951E-002;3.949270583689213E-003;1.436624792404473E-003;
2.403000000000000E+009;1.671184152364731E-001;2.550175972282887E-002;4.023164976388216E-003;1.386089483276010E-003;
2.403166666666667E+009;1.678193658590317E-001;2.405880577862263E-002;4.154080525040627E-003;1.113242120482028E-003;
2.403333333333334E+009;1.684244573116303E-001;2.269679121673107E-002;4.256433807313442E-003;8.930375915952027E-004;
2.403500000000000E+009;1.693008393049240E-001;2.125356905162334E-002;4.230543971061707E-003;7.630703621543944E-004;
2.403666666666667E+009;1.700952351093292E-001;2.017784304916859E-002;4.240375943481922E-003;6.795024964958429E-004;
2.403833333333334E+009;1.707871109247208E-001;1.899623870849609E-002;4.236551932990551E-003;4.606848524417728E-004;
2.404000000000000E+009;1.715067625045776E-001;1.803676038980484E-002;4.355716519057751E-003;1.967396965483204E-004;
2.404166666666667E+009;1.720402240753174E-001;1.699775084853172E-002;4.252464044839144E-003;1.372149272356182E-004;
2.404333333333334E+009;1.728320419788361E-001;1.603531837463379E-002;4.010509699583054E-003;-2.166572630812880E-005;
2.404500000000000E+009;1.734109967947006E-001;1.511241123080254E-002;4.006486851722002E-003;-2.304324589204043E-004;
2.404666666666667E+009;1.741076856851578E-001;1.426165830343962E-002;3.970987629145384E-003;-3.464211476966739E-004;
2.404833333333334E+009;1.747534573078156E-001;1.351197902113199E-002;3.881729906424880E-003;-4.156365466769785E-004;
2.405000000000000E+009;1.754127144813538E-001;1.293234620243311E-002;3.994638100266457E-003;-5.175069672986865E-004;
2.405166666666667E+009;1.758941859006882E-001;1.227489206939936E-002;3.782355925068259E-003;-5.763089866377413E-004;
2.405333333333334E+009;1.764120310544968E-001;1.155094988644123E-002;3.530835965648294E-003;-7.180482498370111E-004;
2.405500000000000E+009;1.769382059574127E-001;1.127922907471657E-002;3.524645697325468E-003;-7.586376741528511E-004;
2.405666666666667E+009;1.772822439670563E-001;1.069012470543385E-002;3.634166903793812E-003;-6.530442624352872E-004;
2.405833333333334E+009;1.775476336479187E-001;1.045911572873592E-002;3.383659059181809E-003;-8.746785460971296E-004;
2.406000000000000E+009;1.780004501342773E-001;9.801229462027550E-003;3.484601620584726E-003;-1.008100109174848E-003;
2.406166666666667E+009;1.781390458345413E-001;9.559776633977890E-003;3.313409863039851E-003;-1.043036929331720E-003;
2.406333333333334E+009;1.784269958734512E-001;9.201709181070328E-003;3.406888572499156E-003;-1.008744351565838E-003;
2.406500000000000E+009;1.784558594226837E-001;8.771291933953762E-003;3.412156365811825E-003;-9.697539499029517E-004;
2.406666666666667E+009;1.783427745103836E-001;8.398267440497875E-003;3.409425495192409E-003;-1.069611404091120E-003;
2.406833333333334E+009;1.784618347883225E-001;7.980722934007645E-003;3.247025655582547E-003;-1.147158211097121E-003;
2.407000000000000E+009;1.783764660358429E-001;7.488424424082041E-003;3.163642482832074E-003;-1.027622725814581E-003;
2.407166666666667E+009;1.785018295049667E-001;7.216088008135557E-003;3.388758981600404E-003;-1.260985503904522E-003;
2.407333333333334E+009;1.780362427234650E-001;6.388574838638306E-003;3.320033662021160E-003;-1.273546484299004E-003;
2.407500000000000E+009;1.777928471565247E-001;6.031157914549112E-003;3.270680084824562E-003;-1.358175068162382E-003;
2.407666666666667E+009;1.774783134460449E-001;5.558324977755547E-003;3.234172938391566E-003;-1.418673782609403E-003;
2.407833333333334E+009;1.770823597908020E-001;4.793102853000164E-003;3.180531784892082E-003;-1.503318548202515E-003;
2.408000000000000E+009;1.768697202205658E-001;3.953288309276104E-003;3.370303194969893E-003;-1.511715818196535E-003;
2.408166666666667E+009;1.762714982032776E-001;3.484088694676757E-003;3.241823986172676E-003;-1.723331515677273E-003;
2.408333333333334E+009;1.758973598480225E-001;2.493776613846421E-003;3.200446721166372E-003;-1.743358792737126E-003;
2.408500000000000E+009;1.754473149776459E-001;1.581785851158202E-003;3.209616057574749E-003;-1.795428688637912E-003;
2.408666666666667E+009;1.749624162912369E-001;4.119037475902587E-004;3.256278112530708E-003;-1.958373701199889E-003;
2.408833333333334E+009;1.742915511131287E-001;-6.449728389270604E-004;3.123780246824026E-003;-1.920436974614859E-003;
2.409000000000000E+009;1.736661344766617E-001;-1.672198879532516E-003;3.087097778916359E-003;-2.060674363747239E-003;
2.409166666666667E+009;1.732137054204941E-001;-3.094352548941970E-003;3.071759361773729E-003;-1.946844975464046E-003;
2.409333333333334E+009;1.728136688470841E-001;-4.328192677348852E-003;2.989904955029488E-003;-2.087629633024335E-003;
2.409500000000000E+009;1.719920784235001E-001;-5.661795847117901E-003;2.969769993796945E-003;-2.236159518361092E-003;
2.409666666666667E+009;1.713617891073227E-001;-7.118582725524902E-003;2.947180299088359E-003;-2.290627686306834E-003;
2.409833333333334E+009;1.706987768411636E-001;-8.644724264740944E-003;3.014802932739258E-003;-2.110349247232080E-003;
2.410000000000000E+009;1.704635471105576E-001;-1.011050213128328E-002;3.131666220724583E-003;-2.379959449172020E-003;
2.410166666666667E+009;1.698934584856033E-001;-1.186947431415319E-002;2.976991003379226E-003;-2.450654748827219E-003;
2.410333333333334E+009;1.694430559873581E-001;-1.356983743607998E-002;3.104688599705696E-003;-2.441751305013895E-003;
2.410500000000000E+009;1.691118478775024E-001;-1.519659161567688E-002;2.879485720768571E-003;-2.691249828785658E-003;
2.410666666666667E+009;1.686645895242691E-001;-1.723723858594894E-002;2.867820905521512E-003;-2.641581697389484E-003;
2.410833333333334E+009;1.683609485626221E-001;-1.873898506164551E-002;2.788460347801447E-003;-2.739046467468143E-003;
2.411000000000000E+009;1.682503074407578E-001;-2.058793790638447E-002;2.866336144506931E-003;-2.921170089393854E-003;
2.411166666666667E+009;1.678866744041443E-001;-2.253391034901142E-002;2.859531901776791E-003;-2.950808266177774E-003;
2.411333333333334E+009;1.679358184337616E-001;-2.436938509345055E-002;2.941943006590009E-003;-3.165503498166800E-003;
2.411500000000000E+009;1.676441878080368E-001;-2.614803612232208E-002;2.998945070430636E-003;-3.140088869258761E-003;
2.411666666666667E+009;1.678693294525147E-001;-2.820677869021893E-002;2.914472948759794E-003;-3.453959943726659E-003;
2.411833333333334E+009;1.678811758756638E-001;-3.002983890473843E-002;2.762718126177788E-003;-3.542165039107204E-003;
2.412000000000000E+009;1.682019233703613E-001;-3.192543610930443E-002;2.847909694537520E-003;-3.655572887510061E-003;
2.412166666666667E+009;1.681730002164841E-001;-3.392704948782921E-002;2.636248944327235E-003;-3.846035338938236E-003;
2.412333333333334E+009;1.685114353895187E-001;-3.560239821672440E-002;2.603301312774420E-003;-4.068809561431408E-003;
2.412500000000000E+009;1.688267141580582E-001;-3.737395256757736E-002;2.460198011249304E-003;-4.203947726637125E-003;
2.412666666666667E+009;1.692057549953461E-001;-3.929650038480759E-002;2.208968624472618E-003;-4.270669072866440E-003;
2.412833333333334E+009;1.695188432931900E-001;-4.114012047648430E-002;2.276795916259289E-003;-4.681375809013844E-003;
2.413000000000000E+009;1.699918657541275E-001;-4.265907779335976E-002;2.025347668677568E-003;-4.803798627108336E-003;
2.413166666666667E+009;1.702315062284470E-001;-4.436655715107918E-002;1.814878080040216E-003;-4.842993803322315E-003;
2.413333333333334E+009;1.706300824880600E-001;-4.567360132932663E-002;1.741824438795447E-003;-4.915565252304077E-003;
2.413500000000000E+009;1.713541299104691E-001;-4.745021834969521E-002;1.321794930845499E-003;-5.051726941019297E-003;
2.413666666666667E+009;1.718704998493195E-001;-4.893717914819717E-002;1.126652234233916E-003;-5.072215571999550E-003;
2.413833333333334E+009;1.722396463155747E-001;-5.017324537038803E-002;9.636720642447472E-004;-5.215649493038654E-003;
2.414000000000000E+009;1.727149337530136E-001;-5.148606002330780E-002;4.987838910892606E-004;-5.322570446878672E-003;
2.414166666666667E+009;1.733518391847611E-001;-5.250521376729012E-002;4.181918047834188E-004;-5.314630921930075E-003;
2.414333333333334E+009;1.737794429063797E-001;-5.375794693827629E-002;1.806606596801430E-004;-5.323155783116818E-003;
2.414500000000000E+009;1.744564622640610E-001;-5.471063032746315E-002;-2.087210887111723E-004;-5.195175763219595E-003;
2.414666666666667E+009;1.747195422649384E-001;-5.570010468363762E-002;-2.228285011369735E-004;-5.185851361602545E-003;
2.414833333333334E+009;1.751178354024887E-001;-5.651427432894707E-002;-4.098475328646600E-004;-5.129762925207615E-003;
2.415000000000000E+009;1.755590885877609E-001;-5.727894976735115E-002;-7.721925503574312E-004;-5.086666438728571E-003;
2.415166666666667E+009;1.758509874343872E-001;-5.801978334784508E-002;-9.036976844072342E-004;-5.102297756820917E-003;
2.415333333333334E+009;1.762405931949616E-001;-5.873848870396614E-002;-1.086199888959527E-003;-5.055260378867388E-003;
2.415500000000000E+009;1.762922406196594E-001;-5.916020646691322E-002;-1.209615846164525E-003;-5.031320266425610E-003;
2.415666666666667E+009;1.765894293785095E-001;-5.971345305442810E-002;-1.556626055389643E-003;-4.908505827188492E-003;
2.415833333333334E+009;1.767571717500687E-001;-6.021566689014435E-002;-1.649817102588713E-003;-4.706619773060083E-003;
2.416000000000000E+009;1.767500340938568E-001;-6.064036861062050E-002;-1.846447354182601E-003;-4.683672450482845E-003;
2.416166666666667E+009;1.767844855785370E-001;-6.087690964341164E-002;-1.916804234497249E-003;-4.447130952030420E-003;
2.416333333333334E+009;1.766509562730789E-001;-6.113740801811218E-002;-2.091921400278807E-003;-4.532480146735907E-003;
2.416500000000000E+009;1.763667166233063E-001;-6.141730770468712E-002;-2.331580035388470E-003;-4.503061994910240E-003;
2.416666666666667E+009;1.760005056858063E-001;-6.158990040421486E-002;-2.359025413170457E-003;-4.283025395125151E-003;
2.416833333333334E+009;1.758439689874649E-001;-6.202619522809982E-002;-2.554816659539938E-003;-4.163750912994146E-003;
2.417000000000000E+009;1.751400828361511E-001;-6.222304329276085E-002;-2.625748282298446E-003;-4.055280704051256E-003;
2.417166666666667E+009;1.747497469186783E-001;-6.223256140947342E-002;-2.707341220229864E-003;-4.012722987681627E-003;
2.417333333333334E+009;1.741085350513458E-001;-6.236504763364792E-002;-2.858680905774236E-003;-3.774923039600253E-003;
2.417500000000000E+009;1.734257191419601E-001;-6.285944581031799E-002;-2.801271853968501E-003;-3.678189357742667E-003;
2.417666666666667E+009;1.726718246936798E-001;-6.298831850290299E-002;-2.999072428792715E-003;-3.595382673665881E-003;
2.417833333333334E+009;1.717976480722427E-001;-6.328874826431274E-002;-3.098080400377512E-003;-3.511634422466159E-003;
2.418000000000000E+009;1.708656102418900E-001;-6.371803581714630E-002;-3.115346655249596E-003;-3.344553522765636E-003;
2.418166666666667E+009;1.699657440185547E-001;-6.371938437223434E-002;-3.271288005635142E-003;-3.385970601812005E-003;
2.418333333333334E+009;1.690914332866669E-001;-6.433793157339096E-002;-3.258726093918085E-003;-3.131142351776362E-003;
2.418500000000000E+009;1.678694188594818E-001;-6.469386816024780E-002;-3.286036429926753E-003;-3.105653915554285E-003;
2.418666666666667E+009;1.667865216732025E-001;-6.534691154956818E-002;-3.360107541084290E-003;-3.031782573089004E-003;
2.418833333333334E+009;1.655635386705399E-001;-6.587449461221695E-002;-3.445238573476672E-003;-2.914438256993890E-003;
2.419000000000000E+009;1.642781198024750E-001;-6.641460210084915E-002;-3.546503139659762E-003;-2.772987354546785E-003;
2.419166666666667E+009;1.632958054542542E-001;-6.704001873731613E-002;-3.505025524646044E-003;-2.710143802687526E-003;
2.419333333333334E+009;1.618566960096359E-001;-6.776471436023712E-002;-3.635757137089968E-003;-2.688056090846658E-003;
2.419500000000000E+009;1.606029570102692E-001;-6.868509203195572E-002;-3.675394924357534E-003;-2.579887397587299E-003;
2.419666666666667E+009;1.594733297824860E-001;-6.968801468610764E-002;-3.731641452759504E-003;-2.399996155872941E-003;
2.419833333333334E+009;1.582142859697342E-001;-7.045464217662811E-002;-3.926484845578671E-003;-2.260492881760001E-003;
2.420000000000000E+009;1.572039574384689E-001;-7.154701650142670E-002;-3.979606553912163E-003;-2.294008620083332E-003;
2.420166666666667E+009;1.560218632221222E-001;-7.284092903137207E-002;-3.875066526234150E-003;-2.122401259839535E-003;
2.420333333333334E+009;1.549018472433090E-001;-7.392732053995132E-002;-3.891580039635301E-003;-1.978255342692137E-003;
2.420500000000000E+009;1.539487540721893E-001;-7.502435147762299E-002;-3.975952044129372E-003;-1.680203014984727E-003;
2.420666666666667E+009;1.529635787010193E-001;-7.629390060901642E-002;-3.995944280177355E-003;-1.758057740516961E-003;
2.420833333333334E+009;1.519833505153656E-001;-7.783333212137222E-002;-4.047397989779711E-003;-1.523395651020110E-003;
2.421000000000000E+009;1.511737108230591E-001;-7.940018177032471E-002;-4.215120803564787E-003;-1.478123827837408E-003;
2.421166666666667E+009;1.503931432962418E-001;-8.078033477067947E-002;-4.290039185434580E-003;-1.370213227346540E-003;
2.421333333333334E+009;1.497232317924500E-001;-8.245038986206055E-002;-4.175609443336725E-003;-9.594127768650651E-004;
2.421500000000000E+009;1.488783061504364E-001;-8.402757346630096E-002;-4.267889540642500E-003;-7.934437016956508E-004;
2.421666666666667E+009;1.484197080135346E-001;-8.550406992435455E-002;-4.204741213470697E-003;-7.693833904340863E-004;
2.421833333333334E+009;1.481349915266037E-001;-8.725858479738236E-002;-4.159956239163876E-003;-6.894627586007118E-004;
2.422000000000000E+009;1.476246416568756E-001;-8.884844928979874E-002;-4.211788065731525E-003;-6.579470355063677E-004;
2.422166666666667E+009;1.471703499555588E-001;-9.054400771856308E-002;-4.173723049461842E-003;-4.411369154695422E-004;
2.422333333333334E+009;1.470412462949753E-001;-9.227520972490311E-002;-4.108946770429611E-003;-3.650589205790311E-004;
2.422500000000000E+009;1.467502266168594E-001;-9.381883591413498E-002;-4.038586746901274E-003;-1.452363358112052E-004;
2.422666666666667E+009;1.465392261743546E-001;-9.570110589265823E-002;-4.096788354218006E-003;1.063196614268236E-004;
2.422833333333334E+009;1.465731710195541E-001;-9.742023050785065E-002;-3.945974633097649E-003;1.102674141293392E-004;
2.423000000000000E+009;1.466992944478989E-001;-9.902685135602951E-002;-4.188041668385267E-003;6.529684469569475E-005;
2.423166666666667E+009;1.468644291162491E-001;-1.006909161806107E-001;-4.060815554112196E-003;3.177044854965061E-004;
2.423333333333334E+009;1.471553891897202E-001;-1.021801978349686E-001;-4.006299190223217E-003;4.447474493645132E-004;
2.423500000000000E+009;1.471778899431229E-001;-1.038889288902283E-001;-3.895041765645146E-003;5.782736698165536E-004;
2.423666666666667E+009;1.474546045064926E-001;-1.052795201539993E-001;-3.976011648774147E-003;6.705019623041153E-004;
2.423833333333334E+009;1.478314399719238E-001;-1.069615483283997E-001;-3.847090527415276E-003;6.795567460358143E-004;
2.424000000000000E+009;1.481962651014328E-001;-1.081529483199120E-001;-3.934246487915516E-003;7.401184993796051E-004;
2.424166666666667E+009;1.484032720327377E-001;-1.094246655702591E-001;-3.822366939857602E-003;8.852327591739595E-004;
2.424333333333334E+009;1.489314734935761E-001;-1.105738505721092E-001;-3.785912645980716E-003;1.016772934235632E-003;
2.424500000000000E+009;1.493777930736542E-001;-1.120088547468185E-001;-3.850443288683891E-003;1.214034738950431E-003;
2.424666666666667E+009;1.497548520565033E-001;-1.129288449883461E-001;-3.765058005228639E-003;1.249816152267158E-003;
2.424833333333334E+009;1.499823182821274E-001;-1.139076873660088E-001;-3.657257184386253E-003;1.480470295064151E-003;
2.425000000000000E+009;1.504541337490082E-001;-1.149816215038300E-001;-3.673822386190295E-003;1.557314419187605E-003;
2.425166666666667E+009;1.506489217281342E-001;-1.158059611916542E-001;-3.580488264560700E-003;1.788476249203086E-003;
2.425333333333334E+009;1.510154753923416E-001;-1.165316551923752E-001;-3.530720248818398E-003;1.623508869670332E-003;
2.425500000000000E+009;1.514443457126617E-001;-1.173866242170334E-001;-3.371130209416151E-003;1.830310327932239E-003;
2.425666666666667E+009;1.514279097318649E-001;-1.180594265460968E-001;-3.176174126565456E-003;2.072373405098915E-003;
2.425833333333334E+009;1.516013443470001E-001;-1.186137944459915E-001;-3.165492787957192E-003;2.081759972497821E-003;
2.426000000000000E+009;1.517392396926880E-001;-1.190895438194275E-001;-3.140528686344624E-003;2.153130713850260E-003;
2.426166666666667E+009;1.520745605230331E-001;-1.195834726095200E-001;-2.976479940116406E-003;2.250667428597808E-003;
2.426333333333334E+009;1.519072502851486E-001;-1.198830306529999E-001;-2.910221228376031E-003;2.159117255359888E-003;
2.426500000000000E+009;1.519933789968491E-001;-1.202095225453377E-001;-2.730743028223515E-003;2.246431540697813E-003;
2.426666666666667E+009;1.520267277956009E-001;-1.203520745038986E-001;-2.650155918672681E-003;2.251122379675508E-003;
2.426833333333334E+009;1.517419219017029E-001;-1.207702606916428E-001;-2.352743642404676E-003;2.239702967926860E-003;
2.427000000000000E+009;1.513633728027344E-001;-1.209752783179283E-001;-2.290806965902448E-003;2.333208685740829E-003;
2.427166666666667E+009;1.510351300239563E-001;-1.209034100174904E-001;-2.363443840295076E-003;2.481274073943496E-003;
2.427333333333334E+009;1.504331231117249E-001;-1.211746484041214E-001;-2.169482409954071E-003;2.417773939669132E-003;
2.427500000000000E+009;1.500247269868851E-001;-1.213129535317421E-001;-2.073839074000716E-003;2.452946966513991E-003;
2.427666666666667E+009;1.494535952806473E-001;-1.214226260781288E-001;-1.954317791387439E-003;2.370239701122046E-003;
