# Version 1.00
#
freq[Hz];re:Trc1_S11;im:Trc1_S11;re:Trc2_S21;im:Trc2_S21;
2.400000000000000E+009;1.687770485877991E-001;4.614041745662689E-002;-3.075982676818967E-003;3.835000388789922E-004;
2.400166666666667E+009;1.699021309614182E-001;4.499317333102226E-002;-2.950213151052594E-003;4.840056353714317E-004;
2.400333333333334E+009;1.708200126886368E-001;4.397578909993172E-002;-2.903155516833067E-003;4.251558857504278E-004;
2.400500000000000E+009;1.718674600124359E-001;4.294620826840401E-002;-3.016183152794838E-003;3.868132189381868E-004;
2.400666666666667E+009;1.726508736610413E-001;4.199028760194778E-002;-2.904089400544763E-003;3.496803692542017E-004;
2.400833333333334E+009;1.736688315868378E-001;4.123403131961823E-002;-3.081936854869127E-003;3.715944476425648E-004;
2.401000000000000E+009;1.744317561388016E-001;4.044103994965553E-002;-3.167626215144992E-003;3.140597546007484E-004;
2.401166666666667E+009;1.752823740243912E-001;3.973534330725670E-002;-3.166672307997942E-003;2.714676083996892E-004;
2.401333333333334E+009;1.759366393089294E-001;3.909080103039742E-002;-3.155177924782038E-003;3.118343302048743E-004;
2.401500000000000E+009;1.768667250871658E-001;3.835691511631012E-002;-3.384443465620279E-003;4.283578891772777E-004;
2.401666666666667E+009;1.772197633981705E-001;3.787147253751755E-002;-3.465237095952034E-003;4.239747941028327E-004;
2.401833333333334E+009;1.781242638826370E-001;3.715104982256889E-002;-3.595333779230714E-003;6.799962720833719E-004;
2.402000000000000E+009;1.784564703702927E-001;3.653856739401817E-002;-3.551667090505362E-003;6.451747030951083E-004;
2.402166666666667E+009;1.788175404071808E-001;3.575258329510689E-002;-3.754119854420424E-003;7.281822036020458E-004;
2.402333333333334E+009;1.791055649518967E-001;3.522102162241936E-002;-3.877232782542706E-003;9.287431021220982E-004;
2.402500000000000E+009;1.796717494726181E-001;3.457948565483093E-002;-4.014409147202969E-003;1.136973733082414E-003;
2.402666666666667E+009;1.799328178167343E-001;3.393553942441940E-002;-3.960811533033848E-003;1.247860258445144E-003;
2.402833333333334E+009;1.800647079944611E-001;3.334516286849976E-002;-4.142570309340954E-003;1.402485999278724E-003;
2.403000000000000E+009;1.800539493560791E-001;3.267402574419975E-002;-4.130553454160690E-003;1.618256210349500E-003;
2.403166666666667E+009;1.799545884132385E-001;3.169644623994827E-002;-4.231109749525785E-003;1.796096097677946E-003;
2.403333333333334E+009;1.799533814191818E-001;3.102327696979046E-002;-4.243131261318922E-003;2.031493000686169E-003;
2.403500000000000E+009;1.798689365386963E-001;2.995776571333408E-002;-3.975635394454002E-003;2.387075452134013E-003;
2.403666666666667E+009;1.794521361589432E-001;2.906171791255474E-002;-4.104968160390854E-003;2.673468785360456E-003;
2.403833333333334E+009;1.793032437562943E-001;2.799257077276707E-002;-4.060776904225349E-003;2.905234228819609E-003;
2.404000000000000E+009;1.790178269147873E-001;2.687400579452515E-002;-3.843537997454405E-003;3.133439458906651E-003;
2.404166666666667E+009;1.785779297351837E-001;2.586175687611103E-002;-3.782938932999969E-003;3.280896926298738E-003;
2.404333333333334E+009;1.780831217765808E-001;2.458295412361622E-002;-3.737112740054727E-003;3.538591554388404E-003;
2.404500000000000E+009;1.774371266365051E-001;2.307761646807194E-002;-3.372007515281439E-003;3.804774023592472E-003;
2.404666666666667E+009;1.771528273820877E-001;2.180426754057407E-002;-3.258935874328017E-003;3.908054903149605E-003;
2.404833333333334E+009;1.766625791788101E-001;2.034743875265122E-002;-3.042459022253752E-003;4.217804875224829E-003;
2.405000000000000E+009;1.761483699083328E-001;1.889107190072537E-002;-2.869119634851813E-003;4.469044040888548E-003;
2.405166666666667E+009;1.756573170423508E-001;1.743291690945625E-002;-2.629128983244300E-003;4.609279800206423E-003;
2.405333333333334E+009;1.752753704786301E-001;1.564903557300568E-002;-2.265000483021140E-003;4.531837068498135E-003;
2.405500000000000E+009;1.747775077819824E-001;1.410252973437309E-002;-2.084579318761826E-003;4.829108715057373E-003;
2.405666666666667E+009;1.743776351213455E-001;1.240515243262053E-002;-1.774408970959485E-003;4.835158120840788E-003;
2.405833333333334E+009;1.739281862974167E-001;1.054169703274965E-002;-1.598444883711636E-003;4.737865645438433E-003;
2.406000000000000E+009;1.737016439437866E-001;8.595802821218967E-003;-1.306298538111150E-003;4.926676396280527E-003;
2.406166666666667E+009;1.732715964317322E-001;6.908883340656757E-003;-9.018538985401392E-004;4.962036851793528E-003;
2.406333333333334E+009;1.733012199401856E-001;4.914941266179085E-003;-7.852713461034000E-004;4.863309673964977E-003;
2.406500000000000E+009;1.730442494153976E-001;2.918155631050468E-003;-5.351650179363787E-004;5.000609438866377E-003;
2.406666666666667E+009;1.727925688028336E-001;8.068489260040224E-004;-3.176023892592639E-004;4.840247333049774E-003;
2.406833333333334E+009;1.728624552488327E-001;-1.158026861958206E-003;-2.127162733813748E-004;4.683788865804672E-003;
2.407000000000000E+009;1.729278713464737E-001;-3.425143426284194E-003;1.546152052469552E-004;4.598251543939114E-003;
2.407166666666667E+009;1.732257157564163E-001;-5.441395565867424E-003;3.526621148921549E-004;4.485363606363535E-003;
2.407333333333334E+009;1.731548905372620E-001;-7.609621621668339E-003;5.592086818069220E-004;4.440981894731522E-003;
2.407500000000000E+009;1.734002232551575E-001;-9.786139242351055E-003;8.381501538679004E-004;4.278089851140976E-003;
2.407666666666667E+009;1.737287342548370E-001;-1.179452985525131E-002;8.298241300508380E-004;4.199128132313490E-003;
2.407833333333334E+009;1.738209277391434E-001;-1.395395211875439E-002;1.219213823787868E-003;4.169381689280272E-003;
2.408000000000000E+009;1.743248701095581E-001;-1.607055403292179E-002;1.180052058771253E-003;3.967391327023506E-003;
2.408166666666667E+009;1.744517683982849E-001;-1.806925609707832E-002;1.297967159189284E-003;3.957087174057961E-003;
2.408333333333334E+009;1.750625371932983E-001;-2.004585973918438E-002;1.379390014335513E-003;3.632395993918181E-003;
2.408500000000000E+009;1.753377467393875E-001;-2.209380269050598E-002;1.466556568630040E-003;3.577785566449165E-003;
2.408666666666667E+009;1.757396459579468E-001;-2.398314699530602E-002;1.748839393258095E-003;3.401896217837930E-003;
2.408833333333334E+009;1.759895533323288E-001;-2.573773823678494E-002;1.667884876951575E-003;3.231749171391130E-003;
2.409000000000000E+009;1.764329522848129E-001;-2.736665308475494E-002;1.617364352568984E-003;3.121244488283992E-003;
2.409166666666667E+009;1.766963303089142E-001;-2.908303216099739E-002;1.649042242206633E-003;3.056416055187583E-003;
2.409333333333334E+009;1.773242354393005E-001;-3.047096170485020E-002;1.733506098389626E-003;2.980048069730401E-003;
2.409500000000000E+009;1.775117069482803E-001;-3.195506706833839E-002;1.728477654978633E-003;2.703947713598609E-003;
2.409666666666667E+009;1.780147850513458E-001;-3.304788470268250E-002;1.764390734024346E-003;2.681033918634057E-003;
2.409833333333334E+009;1.784811615943909E-001;-3.398529067635536E-002;1.691644196398556E-003;2.605117624625564E-003;
2.410000000000000E+009;1.788561046123505E-001;-3.508664295077324E-002;1.899861032143235E-003;2.472266787663102E-003;
2.410166666666667E+009;1.793386787176132E-001;-3.587728738784790E-002;1.928147277794778E-003;2.493482315912843E-003;
2.410333333333334E+009;1.798491775989533E-001;-3.675493597984314E-002;2.030886942520738E-003;2.388437744230032E-003;
2.410500000000000E+009;1.801586598157883E-001;-3.752590343356133E-002;1.936570042744279E-003;2.236837521195412E-003;
2.410666666666667E+009;1.803688853979111E-001;-3.838594630360603E-002;1.898085582070053E-003;2.312637399882078E-003;
2.410833333333334E+009;1.810389161109924E-001;-3.902352973818779E-002;1.986427465453744E-003;2.229415345937014E-003;
2.411000000000000E+009;1.811068505048752E-001;-3.943589702248573E-002;1.895070658065379E-003;1.994005637243390E-003;
2.411166666666667E+009;1.813508570194244E-001;-4.013640433549881E-002;1.906840363517404E-003;2.173264976590872E-003;
2.411333333333334E+009;1.815166920423508E-001;-4.049171134829521E-002;1.929368125274777E-003;2.094576833769679E-003;
2.411500000000000E+009;1.814978867769241E-001;-4.100852087140083E-002;1.964357448741794E-003;2.138332463800907E-003;
2.411666666666667E+009;1.815977543592453E-001;-4.147448390722275E-002;1.920328009873629E-003;2.093185903504491E-003;
2.411833333333334E+009;1.816962063312531E-001;-4.168201610445976E-002;1.946160569787026E-003;1.947093405760825E-003;
2.412000000000000E+009;1.814754456281662E-001;-4.225377738475800E-002;2.070478629320860E-003;2.133364323526621E-003;
2.412166666666667E+009;1.810800433158875E-001;-4.263140261173248E-002;1.938779256306589E-003;1.979294698685408E-003;
2.412333333333334E+009;1.808707714080811E-001;-4.273984581232071E-002;2.040608553215861E-003;1.920558861456811E-003;
2.412500000000000E+009;1.801366358995438E-001;-4.313074797391892E-002;2.111975336447358E-003;1.900007133372128E-003;
2.412666666666667E+009;1.797682940959930E-001;-4.367488995194435E-002;2.033779164776206E-003;2.074771560728550E-003;
2.412833333333334E+009;1.792873591184616E-001;-4.403604567050934E-002;2.117430791258812E-003;1.997942104935646E-003;
2.413000000000000E+009;1.782625168561935E-001;-4.418940097093582E-002;2.308383351191878E-003;2.006424125283957E-003;
2.413166666666667E+009;1.774516701698303E-001;-4.461809247732163E-002;2.384337596595287E-003;1.901433919556439E-003;
2.413333333333334E+009;1.766367852687836E-001;-4.526883736252785E-002;2.393339527770877E-003;1.874499022960663E-003;
2.413500000000000E+009;1.757140159606934E-001;-4.569584131240845E-002;2.607123460620642E-003;1.986235147342086E-003;
2.413666666666667E+009;1.746586710214615E-001;-4.610834270715714E-002;2.669607987627387E-003;1.753757940605283E-003;
2.413833333333334E+009;1.734691411256790E-001;-4.677427932620049E-002;2.752878470346332E-003;1.780742662958801E-003;
2.414000000000000E+009;1.722715944051743E-001;-4.747171327471733E-002;2.750876126810908E-003;1.644178642891347E-003;
2.414166666666667E+009;1.713348478078842E-001;-4.800633713603020E-002;2.722227713093162E-003;1.566932653076947E-003;
2.414333333333334E+009;1.701406985521317E-001;-4.883904010057449E-002;2.822385868057609E-003;1.617487752810121E-003;
2.414500000000000E+009;1.689857095479965E-001;-4.965747520327568E-002;2.838271902874112E-003;1.476787845604122E-003;
2.414666666666667E+009;1.676324158906937E-001;-5.042528361082077E-002;2.992269815877080E-003;1.560968928970397E-003;
2.414833333333334E+009;1.665204167366028E-001;-5.163287743926048E-002;3.075995948165655E-003;1.477799494750798E-003;
2.415000000000000E+009;1.652794778347015E-001;-5.267389118671417E-002;3.099408466368914E-003;1.315209548920393E-003;
2.415166666666667E+009;1.641804724931717E-001;-5.390717089176178E-002;3.274816786870360E-003;1.288838568143547E-003;
2.415333333333334E+009;1.630288511514664E-001;-5.514646321535111E-002;3.041844116523862E-003;1.187746063806117E-003;
2.415500000000000E+009;1.618342846632004E-001;-5.652938410639763E-002;3.371496219187975E-003;9.533142438158393E-004;
2.415666666666667E+009;1.607639938592911E-001;-5.800161510705948E-002;3.287879051640630E-003;8.770670974627137E-004;
2.415833333333334E+009;1.597020179033279E-001;-5.962726846337318E-002;3.466440830379725E-003;8.068055030889809E-004;
2.416000000000000E+009;1.584141999483109E-001;-6.120723485946655E-002;3.668643999844790E-003;8.112454670481384E-004;
2.416166666666667E+009;1.576969027519226E-001;-6.284157931804657E-002;3.668034449219704E-003;6.414206582121551E-004;
2.416333333333334E+009;1.567637771368027E-001;-6.459312140941620E-002;3.601000178605318E-003;4.872111894655973E-004;
2.416500000000000E+009;1.557005643844605E-001;-6.648235023021698E-002;3.680695313960314E-003;3.041427407879382E-004;
2.416666666666667E+009;1.547344177961350E-001;-6.818929314613342E-002;3.664813004434109E-003;3.443105961196125E-004;
2.416833333333334E+009;1.540281474590302E-001;-7.026109099388123E-002;3.822131082415581E-003;1.272245135623962E-004;
2.417000000000000E+009;1.530495733022690E-001;-7.231194525957108E-002;3.842537524178624E-003;-7.311852186830947E-006;
2.417166666666667E+009;1.524207442998886E-001;-7.401987910270691E-002;3.858599578961730E-003;-2.965073799714446E-004;
2.417333333333334E+009;1.518808156251907E-001;-7.592191547155380E-002;3.901026677340269E-003;-4.237809625919908E-004;
2.417500000000000E+009;1.512545049190521E-001;-7.782758027315140E-002;3.916095942258835E-003;-6.110981339588761E-004;
2.417666666666667E+009;1.508532017469406E-001;-7.964041084051132E-002;3.937137313187122E-003;-7.510189316235483E-004;
2.417833333333334E+009;1.504589468240738E-001;-8.140335232019424E-002;3.814482828602195E-003;-1.075742184184492E-003;
2.418000000000000E+009;1.499061286449432E-001;-8.327025920152664E-002;3.751737065613270E-003;-1.198912737891078E-003;
2.418166666666667E+009;1.496547460556030E-001;-8.499086648225784E-002;3.657342633232474E-003;-1.290430198423564E-003;
2.418333333333334E+009;1.497750431299210E-001;-8.666304498910904E-002;3.629423910751939E-003;-1.438410603441298E-003;
2.418500000000000E+009;1.494674980640411E-001;-8.821521699428558E-002;3.503178013488650E-003;-1.688890857622027E-003;
2.418666666666667E+009;1.493836790323257E-001;-8.984633535146713E-002;3.337909001857042E-003;-1.801127102226019E-003;
2.418833333333334E+009;1.492492556571960E-001;-9.128081798553467E-002;3.151587676256895E-003;-1.944951829500496E-003;
2.419000000000000E+009;1.492521315813065E-001;-9.245297312736511E-002;3.057209309190512E-003;-2.129616215825081E-003;
2.419166666666667E+009;1.493675261735916E-001;-9.368272870779038E-002;2.963991835713387E-003;-2.268144395202398E-003;
2.419333333333334E+009;1.492779701948166E-001;-9.471626579761505E-002;2.738784998655319E-003;-2.350229769945145E-003;
2.419500000000000E+009;1.495479345321655E-001;-9.593307226896286E-002;2.464045071974397E-003;-2.247795462608337E-003;
2.419666666666667E+009;1.499161273241043E-001;-9.680048376321793E-002;2.305380534380674E-003;-2.361525548622012E-003;
2.419833333333334E+009;1.499237716197968E-001;-9.751074761152268E-002;2.406417625024915E-003;-2.494678599759936E-003;
2.420000000000000E+009;1.503727436065674E-001;-9.820291399955750E-002;2.319622319191694E-003;-2.495770808309317E-003;
2.420166666666667E+009;1.506274044513702E-001;-9.879255294799805E-002;2.160964300855994E-003;-2.418684307485819E-003;
2.420333333333334E+009;1.508671045303345E-001;-9.932551532983780E-002;1.988955540582538E-003;-2.388792810961604E-003;
2.420500000000000E+009;1.512483507394791E-001;-9.959920495748520E-002;1.831006957218051E-003;-2.431940287351608E-003;
2.420666666666667E+009;1.514117866754532E-001;-9.977173060178757E-002;1.851275446824729E-003;-2.425501355901361E-003;
2.420833333333334E+009;1.516612172126770E-001;-1.000212877988815E-001;1.797277014702559E-003;-2.403198275715113E-003;
2.421000000000000E+009;1.521793454885483E-001;-1.001939475536346E-001;1.620874274522066E-003;-2.437904244288802E-003;
2.421166666666667E+009;1.523334383964539E-001;-1.001146137714386E-001;1.579125062562525E-003;-2.516946522518992E-003;
2.421333333333334E+009;1.525323092937470E-001;-1.001211255788803E-001;1.479320228099823E-003;-2.308385679498315E-003;
2.421500000000000E+009;1.523751020431519E-001;-9.995357692241669E-002;1.550967339426279E-003;-2.422142075374723E-003;
2.421666666666667E+009;1.526325196027756E-001;-9.994602203369141E-002;1.426305039785802E-003;-2.469771774485707E-003;
2.421833333333334E+009;1.525818258523941E-001;-9.984041750431061E-002;1.415159204043448E-003;-2.454044530168176E-003;
2.422000000000000E+009;1.524355709552765E-001;-9.948263317346573E-002;1.379499444738030E-003;-2.531095873564482E-003;
2.422166666666667E+009;1.522385776042938E-001;-9.958023577928543E-002;1.559303142130375E-003;-2.554914215579629E-003;
2.422333333333334E+009;1.517165601253510E-001;-9.919900447130203E-002;1.345262862741947E-003;-2.412054687738419E-003;
2.422500000000000E+009;1.512912213802338E-001;-9.883572161197662E-002;1.470843562856317E-003;-2.503035357221961E-003;
2.422666666666667E+009;1.506704241037369E-001;-9.857454895973206E-002;1.336562563665211E-003;-2.721025608479977E-003;
2.422833333333334E+009;1.500500887632370E-001;-9.845504164695740E-002;1.302802120335400E-003;-2.799450652673841E-003;
2.423000000000000E+009;1.491495072841644E-001;-9.799940884113312E-002;1.098842592909932E-003;-2.905397210270166E-003;
2.423166666666667E+009;1.482329517602921E-001;-9.782492369413376E-002;1.128520350903273E-003;-2.999778138473630E-003;
2.423333333333334E+009;1.473236829042435E-001;-9.721451252698898E-002;9.912161622196436E-004;-3.004611702635884E-003;
2.423500000000000E+009;1.462390869855881E-001;-9.717229753732681E-002;9.409106569364667E-004;-2.884119283407927E-003;
2.423666666666667E+009;1.449857205152512E-001;-9.699771553277969E-002;9.110042592510581E-004;-3.148561343550682E-003;
2.423833333333334E+009;1.438931375741959E-001;-9.667650610208511E-002;6.777555681765080E-004;-3.001363016664982E-003;
2.424000000000000E+009;1.424600034952164E-001;-9.615013003349304E-002;7.545559783466160E-004;-3.117418382316828E-003;
2.424166666666667E+009;1.411363184452057E-001;-9.615304321050644E-002;4.579237138386816E-004;-3.170170122757554E-003;
2.424333333333334E+009;1.398339122533798E-001;-9.597970545291901E-002;3.273837210144848E-004;-3.297923598438501E-003;
2.424500000000000E+009;1.384559869766235E-001;-9.607688337564468E-002;2.370832953602076E-004;-3.174661193042994E-003;
2.424666666666667E+009;1.370740979909897E-001;-9.606902301311493E-002;1.736847189022228E-004;-3.318723756819964E-003;
2.424833333333334E+009;1.356101781129837E-001;-9.635612368583679E-002;-2.072381721518468E-005;-3.256232012063265E-003;
2.425000000000000E+009;1.342200040817261E-001;-9.669324010610580E-002;-1.518803619546816E-004;-3.243202576413751E-003;
2.425166666666667E+009;1.325608640909195E-001;-9.700724482536316E-002;-2.251635451102629E-004;-3.331490326672792E-003;
2.425333333333334E+009;1.311841607093811E-001;-9.758701175451279E-002;-3.938295121770352E-004;-3.168484661728144E-003;
2.425500000000000E+009;1.297721713781357E-001;-9.833642840385437E-002;-3.824814048130065E-004;-3.111005062237382E-003;
2.425666666666667E+009;1.281832754611969E-001;-9.904799610376358E-002;-6.965282373130322E-004;-3.048502607271075E-003;
2.425833333333334E+009;1.267754137516022E-001;-9.979612380266190E-002;-6.803457508794963E-004;-3.012389643117786E-003;
2.426000000000000E+009;1.253476440906525E-001;-1.009488999843597E-001;-7.463057409040630E-004;-2.917535603046417E-003;
2.426166666666667E+009;1.242596134543419E-001;-1.020919010043144E-001;-8.997652912512422E-004;-3.019844181835651E-003;
2.426333333333334E+009;1.228085458278656E-001;-1.032319217920303E-001;-9.100834722630680E-004;-2.753869164735079E-003;
2.426500000000000E+009;1.215265393257141E-001;-1.044638007879257E-001;-1.123452209867537E-003;-2.598779974505305E-003;
2.426666666666667E+009;1.205020844936371E-001;-1.057141125202179E-001;-1.084899064153433E-003;-2.543677343055606E-003;
2.426833333333334E+009;1.192756891250610E-001;-1.072715967893601E-001;-9.962066542357206E-004;-2.450746018439531E-003;
2.427000000000000E+009;1.181214228272438E-001;-1.088540405035019E-001;-1.226753578521311E-003;-2.380120102316141E-003;
2.427166666666667E+009;1.172029152512550E-001;-1.102911233901978E-001;-1.073037274181843E-003;-2.305538160726428E-003;
2.427333333333334E+009;1.163479089736939E-001;-1.120033562183380E-001;-1.149516087025404E-003;-2.147610764950514E-003;
2.427500000000000E+009;1.156736835837364E-001;-1.136889904737473E-001;-1.204369124025106E-003;-2.185841789469123E-003;
2.427666666666667E+009;1.148230955004692E-001;-1.154962703585625E-001;-1.170017989352346E-003;-2.040700754150748E-003;
2.427833333333334E+009;1.140965670347214E-001;-1.171248927712441E-001;-1.004252349957824E-003;-2.146002603694797E-003;
