# Version 1.00
#
freq[Hz];re:Trc1_S11;im:Trc1_S11;re:Trc2_S21;im:Trc2_S21;
2.400000000000000E+009;1.549974977970123E-001;1.063825190067291E-001;-7.018591742962599E-003;2.311232499778271E-003;
2.400166666666667E+009;1.548581123352051E-001;1.038989350199699E-001;-6.888997741043568E-003;2.712787361815572E-003;
2.400333333333334E+009;1.547636687755585E-001;1.016815975308418E-001;-6.839678157120943E-003;2.963628852739930E-003;
2.400500000000000E+009;1.550324708223343E-001;9.885039180517197E-002;-6.655352655798197E-003;3.058566711843014E-003;
2.400666666666667E+009;1.551434993743897E-001;9.637698531150818E-002;-6.454181857407093E-003;3.214235184714198E-003;
2.400833333333334E+009;1.551908850669861E-001;9.356158226728439E-002;-6.186947226524353E-003;3.496033139526844E-003;
2.401000000000000E+009;1.552891880273819E-001;9.068179130554199E-002;-6.200660485774279E-003;3.762648673728108E-003;
2.401166666666667E+009;1.553598940372467E-001;8.790732920169830E-002;-5.936042405664921E-003;3.749647177755833E-003;
2.401333333333334E+009;1.557996124029160E-001;8.520688116550446E-002;-5.926381330937147E-003;4.060736391693354E-003;
2.401500000000000E+009;1.562678962945938E-001;8.236503601074219E-002;-5.614257417619228E-003;4.238031804561615E-003;
2.401666666666667E+009;1.565826088190079E-001;7.950431108474731E-002;-5.620223935693502E-003;4.423186648637056E-003;
2.401833333333334E+009;1.571911126375198E-001;7.679776847362518E-002;-5.446462426334620E-003;4.508229438215494E-003;
2.402000000000000E+009;1.581638753414154E-001;7.407580316066742E-002;-5.307917948812246E-003;4.791223909705877E-003;
2.402166666666667E+009;1.588597446680069E-001;7.160639762878418E-002;-4.948283080011606E-003;4.862194880843163E-003;
2.402333333333334E+009;1.599305719137192E-001;6.876452267169952E-002;-4.929197486490011E-003;4.968931432813406E-003;
2.402500000000000E+009;1.611422449350357E-001;6.635484844446182E-002;-4.537638742476702E-003;5.061582196503878E-003;
2.402666666666667E+009;1.621871739625931E-001;6.393542885780335E-002;-4.359234590083361E-003;5.352081730961800E-003;
2.402833333333334E+009;1.635961234569550E-001;6.165077164769173E-002;-4.116808064281941E-003;5.405541975051165E-003;
2.403000000000000E+009;1.648813337087631E-001;5.922294408082962E-002;-3.846599021926522E-003;5.466261878609657E-003;
2.403166666666667E+009;1.666312217712402E-001;5.710698664188385E-002;-3.777607809752226E-003;5.742579232901335E-003;
2.403333333333334E+009;1.680829972028732E-001;5.490561202168465E-002;-3.526847576722503E-003;5.656436085700989E-003;
2.403500000000000E+009;1.699169576168060E-001;5.304674059152603E-002;-3.388833720237017E-003;5.755796562880278E-003;
2.403666666666667E+009;1.714851409196854E-001;5.102360621094704E-002;-3.072879742830992E-003;5.789187271147966E-003;
2.403833333333334E+009;1.732350438833237E-001;4.920646175742149E-002;-2.914024284109473E-003;5.815796088427305E-003;
2.404000000000000E+009;1.746214330196381E-001;4.751195758581162E-002;-2.542692469432950E-003;5.957960151135922E-003;
2.404166666666667E+009;1.763218790292740E-001;4.603196680545807E-002;-2.365607535466552E-003;6.008707918226719E-003;
2.404333333333334E+009;1.778929233551025E-001;4.452869296073914E-002;-2.151204505935311E-003;5.906040780246258E-003;
2.404500000000000E+009;1.796124726533890E-001;4.323683306574822E-002;-1.908597769215703E-003;6.125407293438911E-003;
2.404666666666667E+009;1.811003834009171E-001;4.210800305008888E-002;-1.708977972157300E-003;6.196843460202217E-003;
2.404833333333334E+009;1.827787309885025E-001;4.097020253539085E-002;-1.519244862720370E-003;5.968583282083273E-003;
2.405000000000000E+009;1.841110289096832E-001;4.052689298987389E-002;-1.284265890717506E-003;5.950256716459990E-003;
2.405166666666667E+009;1.854857355356216E-001;3.966988623142242E-002;-9.918889263644815E-004;5.869782529771328E-003;
2.405333333333334E+009;1.868413239717484E-001;3.927982226014137E-002;-8.962295833043754E-004;6.064674817025662E-003;
2.405500000000000E+009;1.884021311998367E-001;3.874608501791954E-002;-6.031530210748315E-004;5.893066991120577E-003;
2.405666666666667E+009;1.894701719284058E-001;3.849844634532929E-002;-3.824599843937904E-004;5.707445554435253E-003;
2.405833333333334E+009;1.907526850700378E-001;3.810108453035355E-002;-3.161277854815126E-004;5.574814043939114E-003;
2.406000000000000E+009;1.916780620813370E-001;3.791569545865059E-002;-3.073870539083146E-005;5.560860503464937E-003;
2.406166666666667E+009;1.926524043083191E-001;3.799064829945564E-002;-8.122953295242041E-005;5.487463902682066E-003;
2.406333333333334E+009;1.935343742370606E-001;3.783212602138519E-002;1.541741949040443E-004;5.357804708182812E-003;
2.406500000000000E+009;1.942199468612671E-001;3.790871798992157E-002;2.283625362906605E-004;5.237231962382793E-003;
2.406666666666667E+009;1.949382871389389E-001;3.792604058980942E-002;3.265024279244244E-004;5.109334830194712E-003;
2.406833333333334E+009;1.953677982091904E-001;3.797749057412148E-002;4.018925828859210E-004;5.070430226624012E-003;
2.407000000000000E+009;1.957610696554184E-001;3.803133964538574E-002;5.505338776856661E-004;4.974485374987125E-003;
2.407166666666667E+009;1.960483938455582E-001;3.786499053239822E-002;6.273488397710025E-004;5.057412199676037E-003;
2.407333333333334E+009;1.958992332220078E-001;3.795333206653595E-002;7.297659176401794E-004;4.931990988552570E-003;
2.407500000000000E+009;1.959651708602905E-001;3.820496425032616E-002;7.818920421414077E-004;4.852281417697668E-003;
2.407666666666667E+009;1.959634870290756E-001;3.798663243651390E-002;7.573928451165557E-004;4.787017591297627E-003;
2.407833333333334E+009;1.954914182424545E-001;3.773021697998047E-002;1.072184997610748E-003;4.889827687293291E-003;
2.408000000000000E+009;1.954284459352493E-001;3.750865161418915E-002;9.836131939664483E-004;4.624950699508190E-003;
2.408166666666667E+009;1.947520077228546E-001;3.727270290255547E-002;9.986566146835685E-004;4.588254727423191E-003;
2.408333333333334E+009;1.943923979997635E-001;3.661239147186279E-002;1.175949117168784E-003;4.544080235064030E-003;
2.408500000000000E+009;1.937214583158493E-001;3.632445633411408E-002;1.197139616124332E-003;4.398178309202194E-003;
2.408666666666667E+009;1.932091265916824E-001;3.562091663479805E-002;1.074067433364689E-003;4.440140910446644E-003;
2.408833333333334E+009;1.923442780971527E-001;3.493918851017952E-002;1.121990149840713E-003;4.310288466513157E-003;
2.409000000000000E+009;1.915315985679627E-001;3.395810723304749E-002;1.094697858206928E-003;4.275853279978037E-003;
2.409166666666667E+009;1.906250566244125E-001;3.293256089091301E-002;9.632097790017724E-004;4.410543013364077E-003;
2.409333333333334E+009;1.895972639322281E-001;3.184602037072182E-002;1.025370205752552E-003;4.473024047911167E-003;
2.409500000000000E+009;1.885780394077301E-001;3.057515248656273E-002;1.091108424589038E-003;4.255231004208326E-003;
2.409666666666667E+009;1.876308023929596E-001;2.894452773034573E-002;1.264999154955149E-003;4.487969446927309E-003;
2.409833333333334E+009;1.864485442638397E-001;2.758408337831497E-002;1.091359183192253E-003;4.725619684904814E-003;
2.410000000000000E+009;1.856732070446014E-001;2.595729753375053E-002;1.299819443374872E-003;4.663595929741859E-003;
2.410166666666667E+009;1.847635060548782E-001;2.396921068429947E-002;1.501747057773173E-003;4.731371067464352E-003;
2.410333333333334E+009;1.836429983377457E-001;2.218358777463436E-002;1.542618032544851E-003;4.859182983636856E-003;
2.410500000000000E+009;1.828843653202057E-001;2.025594003498554E-002;1.708746422082186E-003;4.763648379594088E-003;
2.410666666666667E+009;1.821017116308212E-001;1.787008531391621E-002;1.766875502653420E-003;5.029800813645124E-003;
2.410833333333334E+009;1.813080757856369E-001;1.580872759222984E-002;2.096602227538824E-003;4.887114744633436E-003;
2.411000000000000E+009;1.804377436637878E-001;1.355162449181080E-002;2.276090905070305E-003;4.843526054173708E-003;
2.411166666666667E+009;1.798827350139618E-001;1.141373068094254E-002;2.260423731058836E-003;4.924783948808909E-003;
2.411333333333334E+009;1.793426722288132E-001;8.703162893652916E-003;2.624198328703642E-003;4.851245321333408E-003;
2.411500000000000E+009;1.787421703338623E-001;6.379926577210426E-003;2.794893924146891E-003;4.903398454189301E-003;
2.411666666666667E+009;1.787943094968796E-001;3.998417407274246E-003;2.919878344982863E-003;4.729323089122772E-003;
2.411833333333334E+009;1.783922910690308E-001;1.731397700496018E-003;3.116048639640212E-003;4.647016059607267E-003;
2.412000000000000E+009;1.785738617181778E-001;-8.335828315466642E-004;3.400070592761040E-003;4.547085147351027E-003;
2.412166666666667E+009;1.785116046667099E-001;-3.142568748444319E-003;3.519178600981832E-003;4.489148035645485E-003;
2.412333333333334E+009;1.787199825048447E-001;-5.697197280824184E-003;3.698394400998950E-003;4.458647221326828E-003;
2.412500000000000E+009;1.792855262756348E-001;-8.139041252434254E-003;3.931688610464335E-003;4.203699529170990E-003;
2.412666666666667E+009;1.798673719167709E-001;-1.058034691959620E-002;4.065661691129208E-003;3.979661036282778E-003;
2.412833333333334E+009;1.803610920906067E-001;-1.279524248093367E-002;4.275104030966759E-003;3.946093376725912E-003;
2.413000000000000E+009;1.811105906963348E-001;-1.508960872888565E-002;4.363237880170345E-003;3.755388082936406E-003;
2.413166666666667E+009;1.817847341299057E-001;-1.734739728271961E-002;4.395829979330301E-003;3.643218195065856E-003;
2.413333333333334E+009;1.827000379562378E-001;-1.974654197692871E-002;4.652965813875198E-003;3.413164289668202E-003;
2.413500000000000E+009;1.835959404706955E-001;-2.198297157883644E-002;4.758791066706181E-003;3.270906861871481E-003;
2.413666666666667E+009;1.848224997520447E-001;-2.398507669568062E-002;4.670468159019947E-003;3.112452570348978E-003;
2.413833333333334E+009;1.858662962913513E-001;-2.602003142237663E-002;5.006885621696711E-003;2.905864035710692E-003;
2.414000000000000E+009;1.869179755449295E-001;-2.778825908899307E-002;5.032295826822519E-003;2.655424410477281E-003;
2.414166666666667E+009;1.882323175668716E-001;-2.953211218118668E-002;4.984701052308083E-003;2.534501953050494E-003;
2.414333333333334E+009;1.892396807670593E-001;-3.150963038206101E-002;5.042911507189274E-003;2.310235053300858E-003;
2.414500000000000E+009;1.904084980487824E-001;-3.289173915982246E-002;5.172350909560919E-003;2.233422128483653E-003;
2.414666666666667E+009;1.915879398584366E-001;-3.433622792363167E-002;5.173689685761929E-003;2.031580777838826E-003;
2.414833333333334E+009;1.926325112581253E-001;-3.567444905638695E-002;5.318788811564446E-003;1.894708722829819E-003;
2.415000000000000E+009;1.937668770551682E-001;-3.692353144288063E-002;5.320045165717602E-003;1.656103413552046E-003;
2.415166666666667E+009;1.949809789657593E-001;-3.799474239349365E-002;5.513708572834730E-003;1.603301381692290E-003;
2.415333333333334E+009;1.959644854068756E-001;-3.905840218067169E-002;5.552143789827824E-003;1.452415133826435E-003;
2.415500000000000E+009;1.970028728246689E-001;-3.969176858663559E-002;5.429289769381285E-003;8.746677776798606E-004;
2.415666666666667E+009;1.980101764202118E-001;-4.027372971177101E-002;5.425347015261650E-003;9.373198845423758E-004;
2.415833333333334E+009;1.987996846437454E-001;-4.086669534444809E-002;5.431156605482101E-003;5.586594925262034E-004;
2.416000000000000E+009;1.995500177145004E-001;-4.139058291912079E-002;5.492982454597950E-003;3.989177057519555E-004;
2.416166666666667E+009;2.003081142902374E-001;-4.188944771885872E-002;5.264653358608484E-003;2.851922181434929E-004;
2.416333333333334E+009;2.009679526090622E-001;-4.212076961994171E-002;5.355550907552242E-003;8.830986189423129E-006;
2.416500000000000E+009;2.012143582105637E-001;-4.244364053010941E-002;5.246280226856470E-003;-6.506060162791982E-005;
2.416666666666667E+009;2.015048861503601E-001;-4.262682050466538E-002;5.178642459213734E-003;-2.757924667093903E-004;
2.416833333333334E+009;2.016664445400238E-001;-4.269602149724960E-002;5.171723198145628E-003;-3.421241126488894E-004;
2.417000000000000E+009;2.018217444419861E-001;-4.283822327852249E-002;5.168595351278782E-003;-5.441722460091114E-004;
2.417166666666667E+009;2.014949023723602E-001;-4.266665130853653E-002;5.067033227533102E-003;-7.673776126466692E-004;
2.417333333333334E+009;2.013024240732193E-001;-4.244073107838631E-002;5.064249038696289E-003;-8.072073105722666E-004;
2.417500000000000E+009;2.009965032339096E-001;-4.257480427622795E-002;5.251271650195122E-003;-8.730254485271871E-004;
2.417666666666667E+009;2.003750652074814E-001;-4.230398312211037E-002;5.017608869820833E-003;-1.195883261971176E-003;
2.417833333333334E+009;1.999167501926422E-001;-4.210980236530304E-002;5.032726097851992E-003;-1.243823789991438E-003;
2.418000000000000E+009;1.992258578538895E-001;-4.190832376480103E-002;4.992814734578133E-003;-1.424266607500613E-003;
2.418166666666667E+009;1.985147446393967E-001;-4.185471311211586E-002;4.691841546446085E-003;-1.598940580151975E-003;
2.418333333333334E+009;1.975699663162231E-001;-4.172424226999283E-002;4.676715470850468E-003;-1.804599422030151E-003;
2.418500000000000E+009;1.964921951293945E-001;-4.182570427656174E-002;4.650050308555365E-003;-1.955433981493115E-003;
2.418666666666667E+009;1.955247968435288E-001;-4.167692735791206E-002;4.496384877711535E-003;-2.103750593960285E-003;
2.418833333333334E+009;1.943858563899994E-001;-4.185989499092102E-002;4.505919292569161E-003;-2.201172057539225E-003;
2.419000000000000E+009;1.931980103254318E-001;-4.200858250260353E-002;4.274248145520687E-003;-2.377010416239500E-003;
2.419166666666667E+009;1.917948871850967E-001;-4.238042607903481E-002;4.131126217544079E-003;-2.556962659582496E-003;
2.419333333333334E+009;1.905247718095779E-001;-4.291361197829247E-002;3.927658777683973E-003;-2.436074195429683E-003;
2.419500000000000E+009;1.890357434749603E-001;-4.333326220512390E-002;3.654921427369118E-003;-2.538840053603053E-003;
2.419666666666667E+009;1.873075217008591E-001;-4.408138990402222E-002;3.675168612971902E-003;-2.653772244229913E-003;
2.419833333333334E+009;1.859171390533447E-001;-4.474579170346260E-002;3.470350988209248E-003;-2.648248570039868E-003;
2.420000000000000E+009;1.844190210103989E-001;-4.571605473756790E-002;3.321847179904580E-003;-2.746103098616004E-003;
2.420166666666667E+009;1.828709989786148E-001;-4.660944640636444E-002;3.348717000335455E-003;-2.759638009592891E-003;
2.420333333333334E+009;1.812975257635117E-001;-4.790065810084343E-002;3.058421192690730E-003;-2.739093266427517E-003;
2.420500000000000E+009;1.797525137662888E-001;-4.920131340622902E-002;3.086320590227842E-003;-2.777643967419863E-003;
2.420666666666667E+009;1.782215833663940E-001;-5.015428364276886E-002;2.912652213126421E-003;-2.764714416116476E-003;
2.420833333333334E+009;1.765732765197754E-001;-5.171936377882958E-002;3.007953753694892E-003;-2.821245929226279E-003;
2.421000000000000E+009;1.752219498157501E-001;-5.343321338295937E-002;2.884571673348546E-003;-2.638852223753929E-003;
2.421166666666667E+009;1.738756746053696E-001;-5.510661751031876E-002;3.019383875653148E-003;-2.734556095674634E-003;
2.421333333333334E+009;1.722863018512726E-001;-5.665954947471619E-002;2.956729847937822E-003;-2.724676392972469E-003;
2.421500000000000E+009;1.709668785333633E-001;-5.843146890401840E-002;2.897268626838923E-003;-2.824655268341303E-003;
2.421666666666667E+009;1.697401404380798E-001;-6.038466468453407E-002;2.842264249920845E-003;-2.751222345978022E-003;
2.421833333333334E+009;1.686806231737137E-001;-6.205536052584648E-002;2.720437012612820E-003;-2.900924999266863E-003;
2.422000000000000E+009;1.676713526248932E-001;-6.397221982479096E-002;2.633443567901850E-003;-2.965656807646155E-003;
2.422166666666667E+009;1.668238192796707E-001;-6.614276021718979E-002;2.389353467151523E-003;-3.078680951148272E-003;
2.422333333333334E+009;1.658622473478317E-001;-6.809199601411820E-002;2.346574561670423E-003;-3.141811583191156E-003;
2.422500000000000E+009;1.650080531835556E-001;-7.008410245180130E-002;2.279761480167508E-003;-3.178946906700730E-003;
2.422666666666667E+009;1.643855720758438E-001;-7.209956645965576E-002;2.131583169102669E-003;-3.217668738216162E-003;
2.422833333333334E+009;1.639256924390793E-001;-7.414233684539795E-002;2.075246768072248E-003;-3.126832190901041E-003;
2.423000000000000E+009;1.633848100900650E-001;-7.619012147188187E-002;1.961967442184687E-003;-3.123671282082796E-003;
2.423166666666667E+009;1.631857454776764E-001;-7.808552682399750E-002;1.915812841616571E-003;-3.328541293740273E-003;
2.423333333333334E+009;1.627676188945770E-001;-8.011751621961594E-002;1.904867123812437E-003;-3.340157447382808E-003;
2.423500000000000E+009;1.627443581819534E-001;-8.166733384132385E-002;1.536294352263212E-003;-3.159299492835999E-003;
2.423666666666667E+009;1.629065871238709E-001;-8.361216634511948E-002;1.630284241400659E-003;-3.159065963700414E-003;
2.423833333333334E+009;1.626537740230560E-001;-8.532676100730896E-002;1.655903295613825E-003;-3.232482587918639E-003;
2.424000000000000E+009;1.629618555307388E-001;-8.708386868238449E-002;1.559194992296398E-003;-3.277383279055357E-003;
2.424166666666667E+009;1.629292070865631E-001;-8.853435516357422E-002;1.543325721286237E-003;-3.147044219076634E-003;
2.424333333333334E+009;1.631372272968292E-001;-9.011925011873245E-002;1.365986070595682E-003;-3.115788800641894E-003;
2.424500000000000E+009;1.634569615125656E-001;-9.172149002552033E-002;1.553899375721812E-003;-3.136060433462262E-003;
2.424666666666667E+009;1.637306958436966E-001;-9.308022260665894E-002;1.387247815728188E-003;-3.093527164310217E-003;
2.424833333333334E+009;1.644540876150131E-001;-9.424747526645660E-002;1.349140889942646E-003;-3.252986585721374E-003;
2.425000000000000E+009;1.647337079048157E-001;-9.533096104860306E-002;1.297040260396898E-003;-3.329517086967826E-003;
2.425166666666667E+009;1.650546342134476E-001;-9.654264152050018E-002;1.314085908234119E-003;-3.180648898705840E-003;
2.425333333333334E+009;1.654269695281982E-001;-9.736181050539017E-002;1.226738793775439E-003;-3.206982044503093E-003;
2.425500000000000E+009;1.659330427646637E-001;-9.834233671426773E-002;1.266640610992909E-003;-3.229267196729779E-003;
2.425666666666667E+009;1.663067936897278E-001;-9.902154654264450E-002;1.242156140506268E-003;-3.262673038989306E-003;
2.425833333333334E+009;1.666560322046280E-001;-9.987054020166397E-002;1.217150595039129E-003;-3.480751765891910E-003;
2.426000000000000E+009;1.671099513769150E-001;-1.003266274929047E-001;1.019965042360127E-003;-3.388898214325309E-003;
2.426166666666667E+009;1.674946099519730E-001;-1.007430702447891E-001;1.089763711206615E-003;-3.478141501545906E-003;
2.426333333333334E+009;1.675514578819275E-001;-1.013408005237579E-001;8.886890718713403E-004;-3.541633021086454E-003;
2.426500000000000E+009;1.679797917604446E-001;-1.016038060188294E-001;8.437128853984177E-004;-3.589601954445243E-003;
2.426666666666667E+009;1.682766228914261E-001;-1.018522456288338E-001;9.297037031501532E-004;-3.623385913670063E-003;
2.426833333333334E+009;1.684576272964478E-001;-1.022464334964752E-001;6.064269109629095E-004;-3.643454750999808E-003;
2.427000000000000E+009;1.683398932218552E-001;-1.024593710899353E-001;6.934534176252782E-004;-3.840941470116377E-003;
2.427166666666667E+009;1.684141904115677E-001;-1.026262119412422E-001;5.130480858497322E-004;-3.756919410079718E-003;
2.427333333333334E+009;1.682498306035996E-001;-1.027728542685509E-001;4.219851689413190E-004;-3.865996375679970E-003;
2.427500000000000E+009;1.680055260658264E-001;-1.030559614300728E-001;4.118448414374143E-004;-3.815297735854983E-003;
2.427666666666667E+009;1.677621603012085E-001;-1.031691804528236E-001;3.472445532679558E-004;-3.818202763795853E-003;
2.427833333333334E+009;1.673594862222672E-001;-1.033567711710930E-001;1.636617089388892E-004;-3.964160569012165E-003;
