# Version 1.00
#
freq[Hz];re:Trc1_S11;im:Trc1_S11;re:Trc2_S21;im:Trc2_S21;
2.400000000000000E+009;1.544561535120010E-001;1.065804287791252E-001;-7.036033552139998E-003;2.293779281899333E-003;
2.400166666666667E+009;1.542222052812576E-001;1.042485162615776E-001;-6.833569146692753E-003;2.535794861614704E-003;
2.400333333333334E+009;1.543688774108887E-001;1.018465533852577E-001;-6.830226629972458E-003;2.767452271655202E-003;
2.400500000000000E+009;1.545212566852570E-001;9.920307993888855E-002;-6.643042899668217E-003;2.894918201491237E-003;
2.400666666666667E+009;1.546544432640076E-001;9.696604311466217E-002;-6.576179061084986E-003;3.221541643142700E-003;
2.400833333333334E+009;1.545642912387848E-001;9.399163722991943E-002;-6.253202911466360E-003;3.440887900069356E-003;
2.401000000000000E+009;1.548853367567062E-001;9.115899354219437E-002;-6.080049090087414E-003;3.510958282276988E-003;
2.401166666666667E+009;1.551853865385056E-001;8.833962678909302E-002;-5.935100372880697E-003;3.674495033919811E-003;
2.401333333333334E+009;1.555598080158234E-001;8.560472726821899E-002;-5.892809946089983E-003;3.914331085979939E-003;
2.401500000000000E+009;1.560519337654114E-001;8.277045935392380E-002;-5.839247722178698E-003;4.122063051909208E-003;
2.401666666666667E+009;1.565123200416565E-001;7.994907349348068E-002;-5.645451601594687E-003;4.356667865067720E-003;
2.401833333333334E+009;1.570150703191757E-001;7.720017433166504E-002;-5.482895765453577E-003;4.631276708096266E-003;
2.402000000000000E+009;1.578593999147415E-001;7.445854693651199E-002;-5.295278038829565E-003;4.705633502453566E-003;
2.402166666666667E+009;1.585691869258881E-001;7.202653586864471E-002;-5.105854012072086E-003;4.602552391588688E-003;
2.402333333333334E+009;1.597530394792557E-001;6.932149827480316E-002;-4.917520564049482E-003;5.007443018257618E-003;
2.402500000000000E+009;1.607545316219330E-001;6.673590093851090E-002;-4.538586363196373E-003;5.089003127068281E-003;
2.402666666666667E+009;1.618442833423615E-001;6.449211388826370E-002;-4.340146202594042E-003;5.234219133853912E-003;
2.402833333333334E+009;1.632960289716721E-001;6.190487369894981E-002;-4.166880156844854E-003;5.275251809507608E-003;
2.403000000000000E+009;1.646837890148163E-001;5.983140692114830E-002;-3.869890235364437E-003;5.405212752521038E-003;
2.403166666666667E+009;1.665908396244049E-001;5.768406763672829E-002;-3.725007642060518E-003;5.421948619186878E-003;
2.403333333333334E+009;1.679267287254334E-001;5.567681416869164E-002;-3.609784878790379E-003;5.510254763066769E-003;
2.403500000000000E+009;1.696190685033798E-001;5.361412093043327E-002;-3.364545293152332E-003;5.554910749197006E-003;
2.403666666666667E+009;1.713097393512726E-001;5.153201520442963E-002;-3.124552080407739E-003;5.633837543427944E-003;
2.403833333333334E+009;1.732019484043121E-001;4.973104596138001E-002;-3.043248085305095E-003;5.551942158490419E-003;
2.404000000000000E+009;1.745553016662598E-001;4.791971296072006E-002;-2.870454918593168E-003;5.775286816060543E-003;
2.404166666666667E+009;1.764172017574310E-001;4.638462141156197E-002;-2.550429431721568E-003;5.852915812283754E-003;
2.404333333333334E+009;1.779147982597351E-001;4.514876753091812E-002;-2.369196619838476E-003;5.964684300124645E-003;
2.404500000000000E+009;1.795593798160553E-001;4.364377632737160E-002;-2.242932794615626E-003;6.039327941834927E-003;
2.404666666666667E+009;1.811034381389618E-001;4.256942868232727E-002;-1.807095948606730E-003;5.923357792198658E-003;
2.404833333333334E+009;1.827508509159088E-001;4.151218757033348E-002;-1.655998406931758E-003;6.096616387367249E-003;
2.405000000000000E+009;1.839436292648315E-001;4.083552956581116E-002;-1.327096717432141E-003;5.993723869323731E-003;
2.405166666666667E+009;1.854669302701950E-001;4.015006870031357E-002;-1.201516482979059E-003;6.014604587107897E-003;
2.405333333333334E+009;1.869174242019653E-001;3.966154903173447E-002;-8.903736015781760E-004;5.951505154371262E-003;
2.405500000000000E+009;1.883222013711929E-001;3.931267186999321E-002;-6.484516779892147E-004;5.837183911353350E-003;
2.405666666666667E+009;1.894093751907349E-001;3.893239051103592E-002;-3.971450787503272E-004;5.773233715444803E-003;
2.405833333333334E+009;1.906240880489349E-001;3.872155398130417E-002;-3.279813390690833E-004;5.645595025271177E-003;
2.406000000000000E+009;1.918199211359024E-001;3.847594559192658E-002;-2.158943971153349E-006;5.557497963309288E-003;
2.406166666666667E+009;1.927100270986557E-001;3.832251951098442E-002;5.909798346692696E-005;5.289721302688122E-003;
2.406333333333334E+009;1.937101632356644E-001;3.839016705751419E-002;2.162606397178024E-004;5.409542005509138E-003;
2.406500000000000E+009;1.942676156759262E-001;3.846385702490807E-002;3.229336580261588E-004;5.142327863723040E-003;
2.406666666666667E+009;1.950208544731140E-001;3.833134099841118E-002;4.251899954397231E-004;5.167503841221333E-003;
2.406833333333334E+009;1.955340802669525E-001;3.844558820128441E-002;4.434064030647278E-004;5.067806690931320E-003;
2.407000000000000E+009;1.957772821187973E-001;3.855936601758003E-002;4.719048156403005E-004;5.109020508825779E-003;
2.407166666666667E+009;1.961537003517151E-001;3.830425068736076E-002;3.827792534139007E-004;4.889993462711573E-003;
2.407333333333334E+009;1.962426751852036E-001;3.846115246415138E-002;6.487723439931870E-004;4.800615832209587E-003;
2.407500000000000E+009;1.960230469703674E-001;3.842228278517723E-002;7.270698552019894E-004;4.807631950825453E-003;
2.407666666666667E+009;1.961380839347839E-001;3.836024180054665E-002;7.542459643445909E-004;4.620564170181751E-003;
2.407833333333334E+009;1.956638395786285E-001;3.812103718519211E-002;8.114483789540827E-004;4.546292126178742E-003;
2.408000000000000E+009;1.954749524593353E-001;3.797130286693573E-002;9.465815383009613E-004;4.358107224106789E-003;
2.408166666666667E+009;1.949369162321091E-001;3.750916942954063E-002;8.956625824794173E-004;4.402154590934515E-003;
2.408333333333334E+009;1.945039480924606E-001;3.702243790030479E-002;8.399239159189165E-004;4.405329935252667E-003;
2.408500000000000E+009;1.938192844390869E-001;3.674465790390968E-002;8.897564257495105E-004;4.320622887462378E-003;
2.408666666666667E+009;1.932031214237213E-001;3.615357354283333E-002;9.701536619104445E-004;4.367051646113396E-003;
2.408833333333334E+009;1.924259215593338E-001;3.527140244841576E-002;8.828118443489075E-004;4.404867999255657E-003;
2.409000000000000E+009;1.915532946586609E-001;3.432197496294975E-002;9.419599664397538E-004;4.382405430078507E-003;
2.409166666666667E+009;1.907243132591248E-001;3.323220089077950E-002;9.534434066154063E-004;4.443871788680553E-003;
2.409333333333334E+009;1.898607760667801E-001;3.215083852410317E-002;8.453798363916576E-004;4.304081201553345E-003;
2.409500000000000E+009;1.887821555137634E-001;3.089585714042187E-002;1.115072169341147E-003;4.487367812544107E-003;
2.409666666666667E+009;1.878645420074463E-001;2.949224784970284E-002;1.051933853887022E-003;4.688333719968796E-003;
2.409833333333334E+009;1.867177039384842E-001;2.792815491557121E-002;1.144404173828661E-003;4.511394072324038E-003;
2.410000000000000E+009;1.858403682708740E-001;2.619931101799011E-002;1.196126802824438E-003;4.668181762099266E-003;
2.410166666666667E+009;1.849098354578018E-001;2.428579702973366E-002;1.479183556511998E-003;4.618880338966847E-003;
2.410333333333334E+009;1.839181482791901E-001;2.262328192591667E-002;1.503473846241832E-003;4.847790114581585E-003;
2.410500000000000E+009;1.829907894134522E-001;2.054039016366005E-002;1.534920535050333E-003;4.884745460003614E-003;
2.410666666666667E+009;1.820321828126907E-001;1.819680444896221E-002;1.981538254767656E-003;4.984332248568535E-003;
2.410833333333334E+009;1.815452426671982E-001;1.597568206489086E-002;1.889440696686506E-003;4.946492612361908E-003;
2.411000000000000E+009;1.808816939592362E-001;1.392120681703091E-002;2.190680708736181E-003;4.958078265190125E-003;
2.411166666666667E+009;1.802213191986084E-001;1.176716107875109E-002;2.382871694862843E-003;4.772935062646866E-003;
2.411333333333334E+009;1.796551197767258E-001;8.987229317426682E-003;2.513200975954533E-003;4.956854972988367E-003;
2.411500000000000E+009;1.791629195213318E-001;6.648886948823929E-003;2.866623690351844E-003;4.916180856525898E-003;
2.411666666666667E+009;1.789894849061966E-001;4.442180972546339E-003;3.091151127591729E-003;4.671224392950535E-003;
2.411833333333334E+009;1.786306500434876E-001;2.053726464509964E-003;3.119976259768009E-003;4.748899023979902E-003;
2.412000000000000E+009;1.789359599351883E-001;-6.576383602805436E-004;3.263194812461734E-003;4.704891704022884E-003;
2.412166666666667E+009;1.788090616464615E-001;-2.895984100177884E-003;3.422898938879371E-003;4.654495045542717E-003;
2.412333333333334E+009;1.790908128023148E-001;-5.543769337236881E-003;3.684729104861617E-003;4.426089115440846E-003;
2.412500000000000E+009;1.795487552881241E-001;-7.831831462681294E-003;3.879383672028780E-003;4.330979660153389E-003;
2.412666666666667E+009;1.800991445779800E-001;-1.031942572444677E-002;4.169917665421963E-003;4.074314143508673E-003;
2.412833333333334E+009;1.806688159704208E-001;-1.266111526638269E-002;4.213489592075348E-003;3.849547356367111E-003;
2.413000000000000E+009;1.813173443078995E-001;-1.478165667504072E-002;4.329150076955557E-003;3.886927384883165E-003;
2.413166666666667E+009;1.822711527347565E-001;-1.696729846298695E-002;4.477173555642366E-003;3.601545235142112E-003;
2.413333333333334E+009;1.831652671098709E-001;-1.935156807303429E-002;4.632325377315283E-003;3.378870431333780E-003;
2.413500000000000E+009;1.838615238666534E-001;-2.174171619117260E-002;4.800098482519388E-003;3.204049309715629E-003;
2.413666666666667E+009;1.852121949195862E-001;-2.367879822850227E-002;4.643393214792013E-003;3.103617345914245E-003;
2.413833333333334E+009;1.860819011926651E-001;-2.569069340825081E-002;4.692071583122015E-003;2.984624588862062E-003;
2.414000000000000E+009;1.873899698257446E-001;-2.760090678930283E-002;4.930941388010979E-003;2.626931061968207E-003;
2.414166666666667E+009;1.886097192764282E-001;-2.940201014280319E-002;5.096544977277517E-003;2.653648843988776E-003;
2.414333333333334E+009;1.895722150802612E-001;-3.136656060814858E-002;5.018460564315319E-003;2.276790328323841E-003;
2.414500000000000E+009;1.907227188348770E-001;-3.284611925482750E-002;5.163686349987984E-003;2.254845807328820E-003;
2.414666666666667E+009;1.918441653251648E-001;-3.423746302723885E-002;5.349249113351107E-003;2.164155477657914E-003;
2.414833333333334E+009;1.928415298461914E-001;-3.557359427213669E-002;5.349719896912575E-003;1.905518001876772E-003;
2.415000000000000E+009;1.941200047731400E-001;-3.688636794686317E-002;5.242584738880396E-003;1.682973466813564E-003;
2.415166666666667E+009;1.952192336320877E-001;-3.797308355569840E-002;5.463433451950550E-003;1.498819910921156E-003;
2.415333333333334E+009;1.963400542736054E-001;-3.878198191523552E-002;5.411277059465647E-003;1.335364882834256E-003;
2.415500000000000E+009;1.973043233156204E-001;-3.941266238689423E-002;5.575427319854498E-003;1.340180868282914E-003;
2.415666666666667E+009;1.982215195894241E-001;-4.022422060370445E-002;5.527234636247158E-003;8.793241577222943E-004;
2.415833333333334E+009;1.991858631372452E-001;-4.082514718174934E-002;5.505098029971123E-003;6.406400934793055E-004;
2.416000000000000E+009;1.999236345291138E-001;-4.137526825070381E-002;5.580184515565634E-003;4.549379227682948E-004;
2.416166666666667E+009;2.005514651536942E-001;-4.181923717260361E-002;5.382342729717493E-003;2.886209113057703E-004;
2.416333333333334E+009;2.011954784393311E-001;-4.211279377341270E-002;5.457843188196421E-003;4.503871241468005E-005;
2.416500000000000E+009;2.017963826656342E-001;-4.232396930456162E-002;5.385894328355789E-003;-1.664499432081357E-004;
2.416666666666667E+009;2.019629329442978E-001;-4.263808205723763E-002;5.259163677692413E-003;-2.927492023445666E-004;
2.416833333333334E+009;2.021614909172058E-001;-4.260385781526566E-002;5.341388285160065E-003;-3.404673771001399E-004;
2.417000000000000E+009;2.022153288125992E-001;-4.268223792314529E-002;5.310643464326859E-003;-4.618034872692078E-004;
2.417166666666667E+009;2.019683271646500E-001;-4.268695041537285E-002;5.117696244269610E-003;-6.877963896840811E-004;
2.417333333333334E+009;2.016679048538208E-001;-4.254912212491036E-002;5.117252003401518E-003;-7.626554579474032E-004;
2.417500000000000E+009;2.013921290636063E-001;-4.254556447267532E-002;5.033371970057488E-003;-1.033073291182518E-003;
2.417666666666667E+009;2.007386833429337E-001;-4.243899509310722E-002;5.009435582906008E-003;-1.078573521226645E-003;
2.417833333333334E+009;2.003973275423050E-001;-4.227430000901222E-002;4.990833345800638E-003;-1.338029862381518E-003;
2.418000000000000E+009;1.996068507432938E-001;-4.192085936665535E-002;4.791875369846821E-003;-1.350354868918657E-003;
2.418166666666667E+009;1.987455785274506E-001;-4.184157773852348E-002;4.748063161969185E-003;-1.565114478580654E-003;
2.418333333333334E+009;1.978982090950012E-001;-4.181710630655289E-002;4.587063100188971E-003;-1.657734159380198E-003;
2.418500000000000E+009;1.967848092317581E-001;-4.185732826590538E-002;4.542976617813110E-003;-1.843436388298869E-003;
2.418666666666667E+009;1.959288865327835E-001;-4.162942618131638E-002;4.430560860782862E-003;-2.016707789152861E-003;
2.418833333333334E+009;1.946425884962082E-001;-4.185159131884575E-002;4.319262225180864E-003;-2.225957345217466E-003;
2.419000000000000E+009;1.933850646018982E-001;-4.187564179301262E-002;4.355318844318390E-003;-2.279579406604171E-003;
2.419166666666667E+009;1.922328323125839E-001;-4.233834147453308E-002;4.155801143497229E-003;-2.349030226469040E-003;
2.419333333333334E+009;1.908173114061356E-001;-4.282696172595024E-002;3.924456425011158E-003;-2.357997465878725E-003;
2.419500000000000E+009;1.893307715654373E-001;-4.328225180506706E-002;3.831636393442750E-003;-2.462673233821988E-003;
2.419666666666667E+009;1.879311800003052E-001;-4.411912336945534E-002;3.645380027592182E-003;-2.657275414094329E-003;
2.419833333333334E+009;1.862305253744125E-001;-4.470902308821678E-002;3.693902166560292E-003;-2.528426237404347E-003;
2.420000000000000E+009;1.849173158407211E-001;-4.565663263201714E-002;3.525519277900457E-003;-2.558124018833041E-003;
2.420166666666667E+009;1.832749843597412E-001;-4.674267396330833E-002;3.275741590186954E-003;-2.638246398419142E-003;
2.420333333333334E+009;1.816484183073044E-001;-4.801025986671448E-002;3.270993940532208E-003;-2.711127046495676E-003;
2.420500000000000E+009;1.799559891223908E-001;-4.918688163161278E-002;3.155578626319766E-003;-2.707870909944177E-003;
2.420666666666667E+009;1.784805357456207E-001;-5.034480243921280E-002;3.225936321541667E-003;-2.784496406093240E-003;
2.420833333333334E+009;1.768323183059692E-001;-5.181470140814781E-002;3.053072839975357E-003;-2.744807396084070E-003;
2.421000000000000E+009;1.753502488136292E-001;-5.351858213543892E-002;3.186003537848592E-003;-2.736295573413372E-003;
2.421166666666667E+009;1.740293353796005E-001;-5.526155978441238E-002;2.826650859788060E-003;-2.902979264035821E-003;
2.421333333333334E+009;1.725158095359802E-001;-5.663681402802467E-002;2.899551531299949E-003;-2.953487448394299E-003;
2.421500000000000E+009;1.711287945508957E-001;-5.857528001070023E-002;2.772990847006440E-003;-3.013856243342161E-003;
2.421666666666667E+009;1.699289977550507E-001;-6.055826321244240E-002;2.586196642369032E-003;-2.843229332938790E-003;
2.421833333333334E+009;1.689347624778748E-001;-6.231112778186798E-002;2.465390600264072E-003;-2.814030740410090E-003;
2.422000000000000E+009;1.677835583686829E-001;-6.411533057689667E-002;2.578319050371647E-003;-3.096339991316199E-003;
2.422166666666667E+009;1.669391244649887E-001;-6.619269400835037E-002;2.403201535344124E-003;-2.828903496265411E-003;
2.422333333333334E+009;1.660537272691727E-001;-6.823662668466568E-002;2.162443939596415E-003;-2.994628390297294E-003;
2.422500000000000E+009;1.652209907770157E-001;-7.012749463319778E-002;2.275210339576006E-003;-2.876376733183861E-003;
2.422666666666667E+009;1.647344976663590E-001;-7.215796411037445E-002;2.204029122367501E-003;-3.198612015694380E-003;
2.422833333333334E+009;1.641362160444260E-001;-7.425344735383987E-002;2.105406252667308E-003;-3.068191697821021E-003;
2.423000000000000E+009;1.636997610330582E-001;-7.622112333774567E-002;2.003059023991227E-003;-2.902859589084983E-003;
2.423166666666667E+009;1.633436679840088E-001;-7.830793410539627E-002;1.971841091290116E-003;-3.165176138281822E-003;
2.423333333333334E+009;1.631485074758530E-001;-8.031588047742844E-002;1.944253337569535E-003;-2.952615497633815E-003;
2.423500000000000E+009;1.631035059690476E-001;-8.194325864315033E-002;1.808895729482174E-003;-3.081300761550665E-003;
2.423666666666667E+009;1.629741787910461E-001;-8.372461050748825E-002;1.765969791449606E-003;-2.966746222227812E-003;
2.423833333333334E+009;1.628852337598801E-001;-8.550466597080231E-002;1.785219414159656E-003;-3.023111494258046E-003;
2.424000000000000E+009;1.630939096212387E-001;-8.721467852592468E-002;1.691863639280200E-003;-3.215626114979386E-003;
2.424166666666667E+009;1.630931049585342E-001;-8.883784711360931E-002;1.541002071462572E-003;-3.118549007922411E-003;
2.424333333333334E+009;1.633576005697250E-001;-9.027746319770813E-002;1.440584543161094E-003;-3.206450724974275E-003;
2.424500000000000E+009;1.636815518140793E-001;-9.189046174287796E-002;1.498293364420533E-003;-3.158158389851451E-003;
2.424666666666667E+009;1.638419926166534E-001;-9.315451234579086E-002;1.429274445399642E-003;-3.180561121553183E-003;
2.424833333333334E+009;1.645621061325073E-001;-9.454166144132614E-002;1.411803415976465E-003;-3.227912820875645E-003;
2.425000000000000E+009;1.647903174161911E-001;-9.562687575817108E-002;1.350445323623717E-003;-3.209284972399473E-003;
2.425166666666667E+009;1.652213037014008E-001;-9.661579132080078E-002;1.208661822602153E-003;-3.268647007644177E-003;
2.425333333333334E+009;1.655546575784683E-001;-9.751452505588532E-002;1.269689877517521E-003;-3.321242053061724E-003;
2.425500000000000E+009;1.659712642431259E-001;-9.847882390022278E-002;1.357162720523775E-003;-3.227440174669027E-003;
2.425666666666667E+009;1.664197444915772E-001;-9.912493079900742E-002;1.206910121254623E-003;-3.377653192728758E-003;
2.425833333333334E+009;1.667583137750626E-001;-1.001010462641716E-001;1.152622280642390E-003;-3.524292726069689E-003;
2.426000000000000E+009;1.670910716056824E-001;-1.004089713096619E-001;1.181212137453258E-003;-3.420979483053088E-003;
2.426166666666667E+009;1.674891859292984E-001;-1.009931191802025E-001;1.166538568213582E-003;-3.533240174874663E-003;
2.426333333333334E+009;1.676031649112701E-001;-1.014605909585953E-001;9.583024075254798E-004;-3.543728962540627E-003;
2.426500000000000E+009;1.680540740489960E-001;-1.017274707555771E-001;1.115558785386384E-003;-3.650342812761664E-003;
2.426666666666667E+009;1.681697368621826E-001;-1.020625755190849E-001;7.945320103317499E-004;-3.639006055891514E-003;
2.426833333333334E+009;1.684068441390991E-001;-1.024441272020340E-001;8.389274589717388E-004;-3.722705412656069E-003;
2.427000000000000E+009;1.683650612831116E-001;-1.024905517697334E-001;7.125713163986802E-004;-3.723147558048368E-003;
2.427166666666667E+009;1.684551835060120E-001;-1.027177348732948E-001;6.310136523097754E-004;-3.794742515310645E-003;
2.427333333333334E+009;1.682548224925995E-001;-1.029664129018784E-001;6.663933163508773E-004;-3.889315761625767E-003;
2.427500000000000E+009;1.680294573307037E-001;-1.030629202723503E-001;4.354582342784852E-004;-3.873789217323065E-003;
2.427666666666667E+009;1.676433533430100E-001;-1.032048165798187E-001;3.152000426780433E-004;-3.797553246840835E-003;
2.427833333333334E+009;1.674125343561173E-001;-1.034883633255959E-001;2.090054622385651E-004;-3.989559598267078E-003;
