# Version 1.00
#
freq[Hz];re:Trc1_S11;im:Trc1_S11;re:Trc2_S21;im:Trc2_S21;
2.400000000000000E+009;1.545499265193939E-001;1.065480560064316E-001;-6.957768462598324E-003;2.337622921913862E-003;
2.400166666666667E+009;1.543286889791489E-001;1.042804196476936E-001;-6.899003405123949E-003;2.654918469488621E-003;
2.400333333333334E+009;1.545213311910629E-001;1.019462794065476E-001;-6.742471829056740E-003;2.812488703057170E-003;
2.400500000000000E+009;1.544485241174698E-001;9.928373247385025E-002;-6.520787253975868E-003;3.004412166774273E-003;
2.400666666666667E+009;1.545675247907639E-001;9.676532447338104E-002;-6.414998322725296E-003;3.266273997724056E-003;
2.400833333333334E+009;1.545328050851822E-001;9.384150058031082E-002;-6.232656538486481E-003;3.555166302248836E-003;
2.401000000000000E+009;1.549824774265289E-001;9.106028825044632E-002;-6.102676969021559E-003;3.569134278222919E-003;
2.401166666666667E+009;1.550300717353821E-001;8.832985162734985E-002;-5.921437405049801E-003;3.671676618978381E-003;
2.401333333333334E+009;1.553812772035599E-001;8.557157218456268E-002;-5.757771432399750E-003;3.910994622856379E-003;
2.401500000000000E+009;1.557038873434067E-001;8.270113170146942E-002;-5.622103344649077E-003;4.173304419964552E-003;
2.401666666666667E+009;1.562139540910721E-001;7.991665601730347E-002;-5.500235594809055E-003;4.270855803042650E-003;
2.401833333333334E+009;1.567794531583786E-001;7.713261246681213E-002;-5.379729438573122E-003;4.354489035904408E-003;
2.402000000000000E+009;1.575643122196198E-001;7.438750565052033E-002;-5.199288018047810E-003;4.674404393881559E-003;
2.402166666666667E+009;1.585157960653305E-001;7.196583598852158E-002;-5.057588685303927E-003;4.627891350537539E-003;
2.402333333333334E+009;1.595316380262375E-001;6.925843656063080E-002;-4.907380789518356E-003;4.968678578734398E-003;
2.402500000000000E+009;1.605733186006546E-001;6.683661788702011E-002;-4.661335609853268E-003;5.119613837450743E-003;
2.402666666666667E+009;1.617224216461182E-001;6.457629054784775E-002;-4.354514647275209E-003;5.207798909395933E-003;
2.402833333333334E+009;1.630914211273193E-001;6.201957911252976E-002;-4.147609230130911E-003;5.164438392966986E-003;
2.403000000000000E+009;1.646687984466553E-001;5.969205126166344E-002;-4.025826696306467E-003;5.412544123828411E-003;
2.403166666666667E+009;1.664032340049744E-001;5.750656872987747E-002;-3.879415802657604E-003;5.386607255786657E-003;
2.403333333333334E+009;1.678282320499420E-001;5.527913197875023E-002;-3.552603535354137E-003;5.642979871481657E-003;
2.403500000000000E+009;1.694937795400620E-001;5.345623940229416E-002;-3.345162840560079E-003;5.681591574102640E-003;
2.403666666666667E+009;1.711276620626450E-001;5.160818621516228E-002;-3.134913509711623E-003;5.763251334428787E-003;
2.403833333333334E+009;1.729630082845688E-001;4.982370883226395E-002;-2.883772598579526E-003;5.852890200912952E-003;
2.404000000000000E+009;1.744370013475418E-001;4.784756898880005E-002;-2.608194015920162E-003;5.671298131346703E-003;
2.404166666666667E+009;1.762043088674545E-001;4.655807837843895E-002;-2.536669373512268E-003;5.815797019749880E-003;
2.404333333333334E+009;1.778757125139237E-001;4.498710483312607E-002;-2.274541649967432E-003;6.047664675861597E-003;
2.404500000000000E+009;1.794154047966003E-001;4.362762719392777E-002;-1.980853499844670E-003;6.043926347047091E-003;
2.404666666666667E+009;1.810504943132401E-001;4.272371530532837E-002;-1.759408507496119E-003;6.076707504689694E-003;
2.404833333333334E+009;1.826440989971161E-001;4.154047369956970E-002;-1.548511208966374E-003;5.959203932434320E-003;
2.405000000000000E+009;1.840457916259766E-001;4.098594188690186E-002;-1.357522676698864E-003;5.962241906672716E-003;
2.405166666666667E+009;1.854253262281418E-001;4.023762047290802E-002;-1.119789434596896E-003;5.930830258876085E-003;
2.405333333333334E+009;1.868041306734085E-001;3.966504707932472E-002;-9.597169118933380E-004;5.939789116382599E-003;
2.405500000000000E+009;1.882074475288391E-001;3.932197764515877E-002;-6.175413727760315E-004;5.967515520751476E-003;
2.405666666666667E+009;1.894225478172302E-001;3.879063576459885E-002;-5.455604405142367E-004;5.822721403092146E-003;
2.405833333333334E+009;1.906035244464874E-001;3.862340003252029E-002;-4.725096223410219E-004;5.767484195530415E-003;
2.406000000000000E+009;1.917564421892166E-001;3.845337033271790E-002;-1.716754341032356E-004;5.564552266150713E-003;
2.406166666666667E+009;1.926260888576508E-001;3.828902915120125E-002;-1.984666014323011E-004;5.576007068157196E-003;
2.406333333333334E+009;1.935421079397202E-001;3.831722587347031E-002;1.573716581333429E-004;5.372520536184311E-003;
2.406500000000000E+009;1.942711770534515E-001;3.832573071122170E-002;1.940412184922025E-004;5.376498680561781E-003;
2.406666666666667E+009;1.950051933526993E-001;3.835349902510643E-002;2.389537403360009E-004;5.321326199918985E-003;
2.406833333333334E+009;1.954949498176575E-001;3.848452121019363E-002;4.181611875537783E-004;5.276145413517952E-003;
2.407000000000000E+009;1.957291811704636E-001;3.861470520496368E-002;3.181610954925418E-004;5.061550065875053E-003;
2.407166666666667E+009;1.961383074522018E-001;3.835783153772354E-002;6.198620540089905E-004;5.037125665694475E-003;
2.407333333333334E+009;1.961029767990112E-001;3.859826922416687E-002;7.001183112151921E-004;4.843952599912882E-003;
2.407500000000000E+009;1.960167586803436E-001;3.853242099285126E-002;8.021148387342691E-004;4.932545591145754E-003;
2.407666666666667E+009;1.961278915405273E-001;3.841709718108177E-002;6.553577259182930E-004;4.830505698919296E-003;
2.407833333333334E+009;1.955243647098541E-001;3.833777457475662E-002;9.197547333315015E-004;4.742661025375128E-003;
2.408000000000000E+009;1.954967826604843E-001;3.804423660039902E-002;9.088084916584194E-004;4.590979311615229E-003;
2.408166666666667E+009;1.949251592159271E-001;3.765287250280380E-002;1.006929902359843E-003;4.490026738494635E-003;
2.408333333333334E+009;1.945990473031998E-001;3.715706244111061E-002;9.928821818903089E-004;4.473250359296799E-003;
2.408500000000000E+009;1.938243955373764E-001;3.669484704732895E-002;8.747648680582643E-004;4.445022437721491E-003;
2.408666666666667E+009;1.933366805315018E-001;3.612219169735909E-002;1.028700033202767E-003;4.407181404531002E-003;
2.408833333333334E+009;1.926627457141876E-001;3.526873886585236E-002;1.022951561026275E-003;4.209170117974281E-003;
2.409000000000000E+009;1.916107684373856E-001;3.441924229264259E-002;1.034379587508738E-003;4.307691007852554E-003;
2.409166666666667E+009;1.907341033220291E-001;3.337132558226585E-002;1.063144532963634E-003;4.306564107537270E-003;
2.409333333333334E+009;1.899179369211197E-001;3.220395371317864E-002;1.057474990375340E-003;4.413229878991842E-003;
2.409500000000000E+009;1.887082010507584E-001;3.088063932955265E-002;9.078036528080702E-004;4.391724243760109E-003;
2.409666666666667E+009;1.877196282148361E-001;2.956428565084934E-002;1.098174834623933E-003;4.516729619354010E-003;
2.409833333333334E+009;1.868154108524323E-001;2.787750586867333E-002;1.127256313338876E-003;4.585675429552794E-003;
2.410000000000000E+009;1.859575361013413E-001;2.613444998860359E-002;1.162038184702396E-003;4.512108396738768E-003;
2.410166666666667E+009;1.847903579473496E-001;2.439437434077263E-002;1.320786541327834E-003;4.810991697013378E-003;
2.410333333333334E+009;1.838574856519699E-001;2.252964675426483E-002;1.439936924725771E-003;4.746278282254934E-003;
2.410500000000000E+009;1.830627620220184E-001;2.074564807116985E-002;1.606611302122474E-003;4.997963085770607E-003;
2.410666666666667E+009;1.821188628673554E-001;1.830585300922394E-002;1.874700537882745E-003;4.926634021103382E-003;
2.410833333333334E+009;1.814420521259308E-001;1.617466658353806E-002;1.933984458446503E-003;4.916715435683727E-003;
2.411000000000000E+009;1.806822866201401E-001;1.380807533860207E-002;2.175426110625267E-003;4.859160631895065E-003;
2.411166666666667E+009;1.800612807273865E-001;1.152903120964766E-002;2.378922654315829E-003;4.999518860131502E-003;
2.411333333333334E+009;1.796407550573349E-001;9.173553436994553E-003;2.687974832952023E-003;4.861991386860609E-003;
2.411500000000000E+009;1.790948659181595E-001;6.760633550584316E-003;2.658896148204804E-003;4.851175937801600E-003;
2.411666666666667E+009;1.788517832756043E-001;4.392259288579226E-003;2.903467742726207E-003;4.636067897081375E-003;
2.411833333333334E+009;1.786077618598938E-001;2.053482225164771E-003;3.135349601507187E-003;4.637845326215029E-003;
2.412000000000000E+009;1.788832992315292E-001;-5.389124271459878E-004;3.368213074281812E-003;4.585464019328356E-003;
2.412166666666667E+009;1.789402067661285E-001;-2.886727917939425E-003;3.453721292316914E-003;4.391248803585768E-003;
2.412333333333334E+009;1.790226548910141E-001;-5.544825922697783E-003;3.748655086383224E-003;4.514211323112249E-003;
2.412500000000000E+009;1.795224994421005E-001;-7.770272437483072E-003;3.974757622927427E-003;4.155586007982492E-003;
2.412666666666667E+009;1.798827052116394E-001;-1.024631410837174E-002;4.099971149116755E-003;4.105628002434969E-003;
2.412833333333334E+009;1.804258227348328E-001;-1.258182805031538E-002;4.129256587475538E-003;3.909417428076267E-003;
2.413000000000000E+009;1.813473105430603E-001;-1.495039928704500E-002;4.250173456966877E-003;3.771628485992551E-003;
2.413166666666667E+009;1.821161657571793E-001;-1.709489151835442E-002;4.422263242304325E-003;3.617775160819292E-003;
2.413333333333334E+009;1.830477267503738E-001;-1.941738650202751E-002;4.688140004873276E-003;3.434528829529882E-003;
2.413500000000000E+009;1.839255094528198E-001;-2.152452804148197E-002;4.854757804423571E-003;3.346708137542009E-003;
2.413666666666667E+009;1.850519329309464E-001;-2.377295121550560E-002;4.737762268632650E-003;3.128175390884280E-003;
2.413833333333334E+009;1.859911233186722E-001;-2.572857774794102E-002;4.764378070831299E-003;3.066953271627426E-003;
2.414000000000000E+009;1.872300505638123E-001;-2.773765474557877E-002;4.975112620741129E-003;2.814128529280424E-003;
2.414166666666667E+009;1.884712278842926E-001;-2.926908992230892E-002;5.129843950271606E-003;2.642591483891010E-003;
2.414333333333334E+009;1.894083470106125E-001;-3.128162771463394E-002;5.039705894887447E-003;2.502918941900134E-003;
2.414500000000000E+009;1.909175962209702E-001;-3.263194486498833E-002;5.078077781945467E-003;2.321755280718207E-003;
2.414666666666667E+009;1.917841136455536E-001;-3.408316895365715E-002;5.344965960830450E-003;2.037669299170375E-003;
2.414833333333334E+009;1.930236220359802E-001;-3.543289378285408E-002;5.257328040897846E-003;1.731385244056583E-003;
2.415000000000000E+009;1.940571963787079E-001;-3.675557300448418E-002;5.441099870949984E-003;1.624302356503904E-003;
2.415166666666667E+009;1.952158063650131E-001;-3.773282095789909E-002;5.422306712716818E-003;1.419636537320912E-003;
2.415333333333334E+009;1.962741315364838E-001;-3.875496983528137E-002;5.472070537507534E-003;1.294525805860758E-003;
2.415500000000000E+009;1.973688453435898E-001;-3.938294202089310E-002;5.529791116714478E-003;1.084403484128416E-003;
2.415666666666667E+009;1.983711421489716E-001;-4.010299220681191E-002;5.410391371697187E-003;8.328331750817597E-004;
2.415833333333334E+009;1.991485506296158E-001;-4.075037688016892E-002;5.528665613383055E-003;6.333964411169291E-004;
2.416000000000000E+009;1.999892592430115E-001;-4.121605679392815E-002;5.483849439769983E-003;3.705356793943793E-004;
2.416166666666667E+009;2.006353586912155E-001;-4.182090237736702E-002;5.466366186738014E-003;5.099232657812536E-004;
2.416333333333334E+009;2.012103646993637E-001;-4.205852746963501E-002;5.434620659798384E-003;1.990370947169140E-004;
2.416500000000000E+009;2.017407119274139E-001;-4.231475666165352E-002;5.249616689980030E-003;-1.919541864481289E-005;
2.416666666666667E+009;2.019883394241333E-001;-4.267715662717819E-002;5.295207258313894E-003;-3.607328108046204E-005;
2.416833333333334E+009;2.020425796508789E-001;-4.263070970773697E-002;5.223324522376061E-003;-1.794280833564699E-004;
2.417000000000000E+009;2.020986378192902E-001;-4.281751811504364E-002;5.258300807327032E-003;-3.692847676575184E-004;
2.417166666666667E+009;2.018773853778839E-001;-4.271666705608368E-002;5.180987529456615E-003;-5.789754213765264E-004;
2.417333333333334E+009;2.016864717006683E-001;-4.257755726575851E-002;5.226764827966690E-003;-7.807014044374228E-004;
2.417500000000000E+009;2.014016062021256E-001;-4.255817458033562E-002;5.211741197854281E-003;-9.436818072572351E-004;
2.417666666666667E+009;2.008178383111954E-001;-4.228129610419273E-002;4.923665430396795E-003;-1.106502488255501E-003;
2.417833333333334E+009;2.003288567066193E-001;-4.205720871686935E-002;4.936412908136845E-003;-1.343548647128046E-003;
2.418000000000000E+009;1.996953934431076E-001;-4.188213497400284E-002;4.941723309457302E-003;-1.289345673285425E-003;
2.418166666666667E+009;1.988686919212341E-001;-4.185169190168381E-002;4.826009739190340E-003;-1.479138387367129E-003;
2.418333333333334E+009;1.979181170463562E-001;-4.165438190102577E-002;4.859094973653555E-003;-1.722261426039040E-003;
2.418500000000000E+009;1.969998478889465E-001;-4.163603484630585E-002;4.613519180566073E-003;-1.816173433326185E-003;
2.418666666666667E+009;1.960411220788956E-001;-4.162493720650673E-002;4.695858340710402E-003;-2.098914468660951E-003;
2.418833333333334E+009;1.948788166046143E-001;-4.190709069371223E-002;4.560506436973810E-003;-2.165913116186857E-003;
2.419000000000000E+009;1.935225725173950E-001;-4.205622524023056E-002;4.285280592739582E-003;-2.327312482520938E-003;
2.419166666666667E+009;1.920547783374786E-001;-4.237207397818565E-002;4.200312308967114E-003;-2.542190020903945E-003;
2.419333333333334E+009;1.908394098281860E-001;-4.294963926076889E-002;4.003329668194056E-003;-2.577061764895916E-003;
2.419500000000000E+009;1.893744468688965E-001;-4.337175190448761E-002;3.784596687182784E-003;-2.569197909906507E-003;
2.419666666666667E+009;1.879098713397980E-001;-4.410987347364426E-002;3.780869767069817E-003;-2.639483893290162E-003;
2.419833333333334E+009;1.862717717885971E-001;-4.489695653319359E-002;3.703992115333676E-003;-2.635181415826082E-003;
2.420000000000000E+009;1.847896873950958E-001;-4.570667445659638E-002;3.450748044997454E-003;-2.698956523090601E-003;
2.420166666666667E+009;1.832286268472672E-001;-4.675154760479927E-002;3.389182034879923E-003;-2.519339788705111E-003;
2.420333333333334E+009;1.816709637641907E-001;-4.793212190270424E-002;3.140196669846773E-003;-2.567245857790113E-003;
2.420500000000000E+009;1.800972372293472E-001;-4.919260740280151E-002;3.184880828484893E-003;-2.712393878027797E-003;
2.420666666666667E+009;1.785030663013458E-001;-5.039557442069054E-002;3.057695459574461E-003;-2.755285939201713E-003;
2.420833333333334E+009;1.768409162759781E-001;-5.194791778922081E-002;2.975375624373555E-003;-2.751425607129931E-003;
2.421000000000000E+009;1.755074262619019E-001;-5.353202298283577E-002;3.022558288648725E-003;-2.633977448567748E-003;
2.421166666666667E+009;1.740795373916626E-001;-5.513634905219078E-002;2.923055319115520E-003;-2.724303631111980E-003;
2.421333333333334E+009;1.724537909030914E-001;-5.663848295807838E-002;2.835934050381184E-003;-2.709321212023497E-003;
2.421500000000000E+009;1.712730526924133E-001;-5.865202099084854E-002;2.736989175900817E-003;-2.804513787850738E-003;
2.421666666666667E+009;1.700630635023117E-001;-6.038124486804009E-002;2.718303818255663E-003;-2.966849133372307E-003;
2.421833333333334E+009;1.688551753759384E-001;-6.249935925006867E-002;2.691621892154217E-003;-3.028971841558814E-003;
2.422000000000000E+009;1.677959412336350E-001;-6.420189887285233E-002;2.679205499589443E-003;-2.994183218106628E-003;
2.422166666666667E+009;1.671314835548401E-001;-6.619410216808319E-002;2.541736466810107E-003;-2.965828403830528E-003;
2.422333333333334E+009;1.660134792327881E-001;-6.830531358718872E-002;2.406182698905468E-003;-3.217722289264202E-003;
2.422500000000000E+009;1.652660518884659E-001;-7.029213756322861E-002;2.270733937621117E-003;-3.120344830676913E-003;
2.422666666666667E+009;1.644410490989685E-001;-7.225009799003601E-002;2.269903663545847E-003;-3.297050949186087E-003;
2.422833333333334E+009;1.641696542501450E-001;-7.427211850881577E-002;2.205176744610071E-003;-3.340551164001226E-003;
2.423000000000000E+009;1.636005043983460E-001;-7.630665600299835E-002;1.977238571271300E-003;-3.240389050915837E-003;
2.423166666666667E+009;1.634087711572647E-001;-7.821945846080780E-002;2.014723839238286E-003;-3.199959406629205E-003;
2.423333333333334E+009;1.631324440240860E-001;-8.012494444847107E-002;1.995237311348319E-003;-3.262149170041084E-003;
2.423500000000000E+009;1.629930585622788E-001;-8.184569329023361E-002;1.806459156796336E-003;-3.351519582793117E-003;
2.423666666666667E+009;1.629862338304520E-001;-8.375493437051773E-002;1.734039862640202E-003;-3.145965747535229E-003;
2.423833333333334E+009;1.629537642002106E-001;-8.540061861276627E-002;1.548829721286893E-003;-3.226692788302898E-003;
2.424000000000000E+009;1.630651652812958E-001;-8.707678318023682E-002;1.595813431777060E-003;-3.210407448932529E-003;
2.424166666666667E+009;1.632836163043976E-001;-8.872310817241669E-002;1.437934348359704E-003;-3.238403936848044E-003;
2.424333333333334E+009;1.634568572044373E-001;-9.008330106735230E-002;1.650723395869136E-003;-3.212480572983623E-003;
2.424500000000000E+009;1.638376414775848E-001;-9.193707257509232E-002;1.458550919778645E-003;-3.177314298227429E-003;
2.424666666666667E+009;1.640158742666245E-001;-9.308110922574997E-002;1.419375184923410E-003;-3.173415549099445E-003;
2.424833333333334E+009;1.644331663846970E-001;-9.447880089282990E-002;1.388670876622200E-003;-3.294804599136114E-003;
2.425000000000000E+009;1.648208349943161E-001;-9.555494040250778E-002;1.328457146883011E-003;-3.188618458807468E-003;
2.425166666666667E+009;1.653071045875549E-001;-9.662933647632599E-002;1.337263151071966E-003;-3.251647111028433E-003;
2.425333333333334E+009;1.655826419591904E-001;-9.755642712116242E-002;1.240646350197494E-003;-3.328074468299747E-003;
2.425500000000000E+009;1.659895181655884E-001;-9.850901365280151E-002;1.278692390769720E-003;-3.482660045847297E-003;
2.425666666666667E+009;1.664285212755203E-001;-9.914847463369370E-002;1.237374730408192E-003;-3.340275958180428E-003;
2.425833333333334E+009;1.668478846549988E-001;-9.987166523933411E-002;1.173211028799415E-003;-3.538156859576702E-003;
2.426000000000000E+009;1.671684533357620E-001;-1.003947183489800E-001;1.182643347419798E-003;-3.461238462477922E-003;
2.426166666666667E+009;1.675392240285873E-001;-1.009481623768807E-001;1.025267876684666E-003;-3.477864433079958E-003;
2.426333333333334E+009;1.676886230707169E-001;-1.014922112226486E-001;1.171743846498430E-003;-3.600708907470107E-003;
2.426500000000000E+009;1.679146289825440E-001;-1.017694771289825E-001;9.086128557100892E-004;-3.566256491467357E-003;
2.426666666666667E+009;1.682283729314804E-001;-1.020039841532707E-001;8.489435422234237E-004;-3.622158197686076E-003;
2.426833333333334E+009;1.685826778411865E-001;-1.023085117340088E-001;7.092776359058917E-004;-3.824255894869566E-003;
2.427000000000000E+009;1.685118973255158E-001;-1.025730818510056E-001;6.335296784527600E-004;-3.815795527771115E-003;
2.427166666666667E+009;1.683924645185471E-001;-1.026733368635178E-001;5.534960073418915E-004;-3.758226986974478E-003;
2.427333333333334E+009;1.682984083890915E-001;-1.029650941491127E-001;2.941642596852034E-004;-3.970295656472445E-003;
2.427500000000000E+009;1.681185513734818E-001;-1.031769365072250E-001;2.723940415307879E-004;-3.865808015689254E-003;
2.427666666666667E+009;1.677415519952774E-001;-1.032390147447586E-001;2.261882618768141E-004;-4.000331740826368E-003;
2.427833333333334E+009;1.674073487520218E-001;-1.034298911690712E-001;1.110062075895257E-004;-3.843333339318633E-003;
