# Version 1.00
#
freq[Hz];re:Trc1_S11;im:Trc1_S11;re:Trc2_S21;im:Trc2_S21;
2.400000000000000E+009;1.579670161008835E-001;1.120203211903572E-001;-9.430138161405921E-004;4.792868858203292E-004;
2.400166666666667E+009;1.572036296129227E-001;1.099657490849495E-001;-9.337475639767945E-004;3.332642081659287E-004;
2.400333333333334E+009;1.569937020540237E-001;1.077888980507851E-001;-6.555780419148505E-004;6.773825734853745E-004;
2.400500000000000E+009;1.564851403236389E-001;1.050457581877708E-001;-6.537309964187443E-004;5.747642135247588E-004;
2.400666666666667E+009;1.562173366546631E-001;1.027163788676262E-001;-4.887775867246091E-004;6.284746341407299E-004;
2.400833333333334E+009;1.558614224195480E-001;9.989999979734421E-002;-3.030882508028299E-004;5.759648629464209E-004;
2.401000000000000E+009;1.555753648281097E-001;9.693270921707153E-002;-3.875318507198244E-004;5.584849277511239E-004;
2.401166666666667E+009;1.555428653955460E-001;9.416224807500839E-002;-3.046981000807136E-004;2.984888851642609E-004;
2.401333333333334E+009;1.552370786666870E-001;9.121745079755783E-002;-1.997057115659118E-004;2.150446962332353E-004;
2.401500000000000E+009;1.555793583393097E-001;8.817725628614426E-002;-3.970509278587997E-004;4.033946606796235E-005;
2.401666666666667E+009;1.553220748901367E-001;8.521879464387894E-002;-4.344606713857502E-004;2.163080644095317E-004;
2.401833333333334E+009;1.555179953575134E-001;8.226754516363144E-002;-5.637719877995551E-004;1.219702971866354E-004;
2.402000000000000E+009;1.561044007539749E-001;7.912108302116394E-002;-4.151096218265593E-004;1.939913490787149E-004;
2.402166666666667E+009;1.565311998128891E-001;7.633615285158157E-002;-5.990171339362860E-004;2.270770346513018E-004;
2.402333333333334E+009;1.572476029396057E-001;7.336686551570892E-002;-8.093495271168649E-004;2.929925103671849E-004;
2.402500000000000E+009;1.581397503614426E-001;7.056412845849991E-002;-5.207497742958367E-004;3.600920899771154E-004;
2.402666666666667E+009;1.591485589742661E-001;6.784946471452713E-002;-7.152523030526936E-004;5.144285387359560E-004;
2.402833333333334E+009;1.602967083454132E-001;6.491109728813171E-002;-6.846389733254910E-004;7.646760786883533E-004;
2.403000000000000E+009;1.616878807544708E-001;6.223336234688759E-002;-5.866294377483428E-004;8.977179531939328E-004;
2.403166666666667E+009;1.631914824247360E-001;5.974541604518890E-002;-4.999769735150039E-004;9.241831721737981E-004;
2.403333333333334E+009;1.643951833248138E-001;5.720034614205360E-002;-4.409255052451044E-004;1.063741161487997E-003;
2.403500000000000E+009;1.663659214973450E-001;5.479238182306290E-002;-3.613544395193458E-004;1.176328398287296E-003;
2.403666666666667E+009;1.679948419332504E-001;5.229529738426209E-002;-1.889905543066561E-004;9.691214654594660E-004;
2.403833333333334E+009;1.696439236402512E-001;5.015398934483528E-002;-1.030352068482898E-004;1.186934998258948E-003;
2.404000000000000E+009;1.712064892053604E-001;4.780109971761704E-002;1.354374981019646E-004;1.050345017574728E-003;
2.404166666666667E+009;1.731069236993790E-001;4.610144719481468E-002;2.585809561423957E-004;1.137753366492689E-003;
2.404333333333334E+009;1.747833490371704E-001;4.409128054976463E-002;5.003997939638794E-004;1.189699512906373E-003;
2.404500000000000E+009;1.767307370901108E-001;4.246403276920319E-002;5.621838499791920E-004;9.246029658243060E-004;
2.404666666666667E+009;1.784628629684448E-001;4.088696092367172E-002;5.761860520578921E-004;1.046145102009177E-003;
2.404833333333334E+009;1.804235726594925E-001;3.961217030882835E-002;6.204922683537006E-004;8.342232322320342E-004;
2.405000000000000E+009;1.820431351661682E-001;3.865353763103485E-002;8.867946453392506E-004;7.481767679564655E-004;
2.405166666666667E+009;1.837130934000015E-001;3.763128072023392E-002;8.896025829017162E-004;6.377096869982779E-004;
2.405333333333334E+009;1.854256838560104E-001;3.707067668437958E-002;9.025451145134866E-004;6.104239728301764E-004;
2.405500000000000E+009;1.871734708547592E-001;3.628169000148773E-002;1.039976836182177E-003;5.437470390461385E-004;
2.405666666666667E+009;1.888204962015152E-001;3.571127355098724E-002;1.060922280885279E-003;3.723403497133404E-004;
2.405833333333334E+009;1.903511881828308E-001;3.547605499625206E-002;1.021368545480073E-003;2.011396427405998E-004;
2.406000000000000E+009;1.917328685522080E-001;3.528201580047607E-002;9.054559050127864E-004;1.944918330991641E-004;
2.406166666666667E+009;1.930313557386398E-001;3.500703722238541E-002;1.131384749896824E-003;5.531926217372529E-005;
2.406333333333334E+009;1.943697035312653E-001;3.512609750032425E-002;9.799698600545526E-004;-1.873583278211299E-005;
2.406500000000000E+009;1.954081207513809E-001;3.525301814079285E-002;1.029862090945244E-003;-9.057379065779969E-005;
2.406666666666667E+009;1.964587867259979E-001;3.533295542001724E-002;1.079947338439524E-003;-2.715621376410127E-004;
2.406833333333334E+009;1.972738951444626E-001;3.554889932274818E-002;1.007047365419567E-003;-2.842412213794887E-004;
2.407000000000000E+009;1.979474127292633E-001;3.582790121436119E-002;7.913566078059375E-004;-2.227477089036256E-004;
2.407166666666667E+009;1.985425949096680E-001;3.593323752284050E-002;8.495578658767045E-004;-2.295931917615235E-004;
2.407333333333334E+009;1.988895833492279E-001;3.628882020711899E-002;7.102425443008542E-004;-3.904074837919325E-004;
2.407500000000000E+009;1.990627348423004E-001;3.660307452082634E-002;6.822292925789952E-004;-4.087663255631924E-004;
2.407666666666667E+009;1.993801891803742E-001;3.694372624158859E-002;7.684486336074770E-004;-4.516185435932130E-004;
2.407833333333334E+009;1.991503238677979E-001;3.713969141244888E-002;6.739387754350901E-004;-5.270471447147429E-004;
2.408000000000000E+009;1.991699337959290E-001;3.735337033867836E-002;6.632138974964619E-004;-6.392819341272116E-004;
2.408166666666667E+009;1.988981068134308E-001;3.744390606880188E-002;6.284578121267259E-004;-6.124661886133254E-004;
2.408333333333334E+009;1.986663937568665E-001;3.741695731878281E-002;6.010507349856198E-004;-6.743676494807005E-004;
2.408500000000000E+009;1.979772597551346E-001;3.751918300986290E-002;4.102255916222930E-004;-6.480520823970437E-004;
2.408666666666667E+009;1.974268406629562E-001;3.726183995604515E-002;4.856696759816259E-004;-6.819041445851326E-004;
2.408833333333334E+009;1.966947913169861E-001;3.713475167751312E-002;3.492504474706948E-004;-5.948269972577691E-004;
2.409000000000000E+009;1.958000063896179E-001;3.659031167626381E-002;3.589307016227394E-004;-6.135792355053127E-004;
2.409166666666667E+009;1.949087232351303E-001;3.604023158550263E-002;2.707121020648629E-004;-5.603575846180320E-004;
2.409333333333334E+009;1.939076036214829E-001;3.542412817478180E-002;3.445695037953556E-004;-5.934835644438863E-004;
2.409500000000000E+009;1.925580948591232E-001;3.462742269039154E-002;3.119368047919124E-004;-5.038634990341961E-004;
2.409666666666667E+009;1.914665848016739E-001;3.347585722804070E-002;3.753738128580153E-004;-5.227162619121373E-004;
2.409833333333334E+009;1.903181225061417E-001;3.243394196033478E-002;4.101889207959175E-004;-4.657914978452027E-004;
2.410000000000000E+009;1.891096532344818E-001;3.119287267327309E-002;4.040178610011935E-004;-4.375103744678199E-004;
2.410166666666667E+009;1.878532171249390E-001;2.971863001585007E-002;4.358107107691467E-004;-4.954180913046002E-004;
2.410333333333334E+009;1.866345554590225E-001;2.818219363689423E-002;5.259277531877160E-004;-4.405532963573933E-004;
2.410500000000000E+009;1.853942722082138E-001;2.653329260647297E-002;5.555998068302870E-004;-5.143100279383361E-004;
2.410666666666667E+009;1.842501312494278E-001;2.453475818037987E-002;5.918797687627375E-004;-5.744105437770486E-004;
2.410833333333334E+009;1.831889897584915E-001;2.247143723070622E-002;7.608244777657092E-004;-7.025984232313931E-004;
2.411000000000000E+009;1.822279393672943E-001;2.048956230282784E-002;7.730580982752144E-004;-8.756489842198789E-004;
2.411166666666667E+009;1.811415255069733E-001;1.835149340331554E-002;7.933900342322886E-004;-9.299500961787999E-004;
2.411333333333334E+009;1.802886575460434E-001;1.586450263857842E-002;8.246698998846114E-004;-1.091133803129196E-003;
2.411500000000000E+009;1.795046180486679E-001;1.338927540928125E-002;6.811833591200411E-004;-1.184226479381323E-003;
2.411666666666667E+009;1.789506375789642E-001;1.109058875590563E-002;6.379132973961532E-004;-1.239117700606585E-003;
2.411833333333334E+009;1.782407015562058E-001;8.621656335890293E-003;5.849704612046480E-004;-1.540638739243150E-003;
2.412000000000000E+009;1.782664805650711E-001;5.913365166634321E-003;5.074115470051765E-004;-1.651073689572513E-003;
2.412166666666667E+009;1.779526025056839E-001;3.553589340299368E-003;3.214632743038237E-004;-1.615213928744197E-003;
2.412333333333334E+009;1.779038161039352E-001;8.177894633263350E-004;1.547608553664759E-004;-1.813268521800637E-003;
2.412500000000000E+009;1.778801977634430E-001;-1.752892043441534E-003;4.844461273023626E-006;-1.806297339498997E-003;
2.412666666666667E+009;1.783596426248550E-001;-4.416190087795258E-003;-6.396930984919891E-005;-1.874673645943403E-003;
2.412833333333334E+009;1.785960346460342E-001;-7.063279394060373E-003;-2.001964894589037E-004;-1.826025662012398E-003;
2.413000000000000E+009;1.791865974664688E-001;-9.688406251370907E-003;-4.703097220044583E-004;-1.767351990565658E-003;
2.413166666666667E+009;1.798428148031235E-001;-1.228271890431643E-002;-6.228165002539754E-004;-1.832341309636831E-003;
2.413333333333334E+009;1.808151751756668E-001;-1.485126838088036E-002;-7.644337019883096E-004;-1.748915645293891E-003;
2.413500000000000E+009;1.814582347869873E-001;-1.751489192247391E-002;-8.967471076175571E-004;-1.711475662887096E-003;
2.413666666666667E+009;1.826087981462479E-001;-1.982253231108189E-002;-9.076332789845765E-004;-1.601327443495393E-003;
2.413833333333334E+009;1.836286783218384E-001;-2.219663746654987E-002;-1.099360641092062E-003;-1.404193462803960E-003;
2.414000000000000E+009;1.848538517951965E-001;-2.462949231266975E-002;-1.119404449127615E-003;-1.412501558661461E-003;
2.414166666666667E+009;1.860952973365784E-001;-2.663572691380978E-002;-1.145501155406237E-003;-1.504411571659148E-003;
2.414333333333334E+009;1.871369481086731E-001;-2.900064177811146E-002;-1.345842494629324E-003;-1.179334823973477E-003;
2.414500000000000E+009;1.884416043758392E-001;-3.073120675981045E-002;-1.268123975023627E-003;-1.142117078416050E-003;
2.414666666666667E+009;1.897250711917877E-001;-3.272410109639168E-002;-1.322362804785371E-003;-1.032774220220745E-003;
2.414833333333334E+009;1.910500824451447E-001;-3.452298417687416E-002;-1.333844265900552E-003;-1.168693765066564E-003;
2.415000000000000E+009;1.924935877323151E-001;-3.603668883442879E-002;-1.414262340404093E-003;-9.371090563945472E-004;
2.415166666666667E+009;1.937946379184723E-001;-3.736107423901558E-002;-1.382275717332959E-003;-1.076372573152185E-003;
2.415333333333334E+009;1.952085793018341E-001;-3.847273439168930E-002;-1.228527165949345E-003;-9.767829906195402E-004;
2.415500000000000E+009;1.964716017246246E-001;-3.943138569593430E-002;-1.521040918305516E-003;-7.381600444205105E-004;
2.415666666666667E+009;1.978246271610260E-001;-4.051883891224861E-002;-1.630332786589861E-003;-8.953566430136561E-004;
2.415833333333334E+009;1.990200877189636E-001;-4.123507812619209E-002;-1.493085059337318E-003;-8.599482825957239E-004;
2.416000000000000E+009;2.000597864389420E-001;-4.203691706061363E-002;-1.646625227294862E-003;-8.040252723731101E-004;
2.416166666666667E+009;2.012240737676621E-001;-4.263255745172501E-002;-1.759547390975058E-003;-6.504323100671172E-004;
2.416333333333334E+009;2.020310610532761E-001;-4.299683868885040E-002;-1.682450063526630E-003;-5.934237851761282E-004;
2.416500000000000E+009;2.029991745948792E-001;-4.329692572355270E-002;-1.761496998369694E-003;-5.729573895223439E-004;
2.416666666666667E+009;2.036163806915283E-001;-4.363625124096870E-002;-1.985100563615561E-003;-3.821904538199306E-004;
2.416833333333334E+009;2.041411399841309E-001;-4.364522174000740E-002;-1.884655212052167E-003;-2.392989845247939E-004;
2.417000000000000E+009;2.046524137258530E-001;-4.378737881779671E-002;-1.878306735306978E-003;-2.128263149643317E-004;
2.417166666666667E+009;2.047720402479172E-001;-4.365471377968788E-002;-1.961715053766966E-003;1.045586686814204E-004;
2.417333333333334E+009;2.049099504947662E-001;-4.332598298788071E-002;-1.832448877394199E-003;3.133116479148157E-005;
2.417500000000000E+009;2.049132883548737E-001;-4.318757355213165E-002;-1.894000568427146E-003;1.655262458370999E-004;
2.417666666666667E+009;2.046897262334824E-001;-4.281695187091827E-002;-1.836861832998693E-003;3.209422284271568E-004;
2.417833333333334E+009;2.045685797929764E-001;-4.247197881340981E-002;-1.711065066047013E-003;4.548424622043967E-004;
2.418000000000000E+009;2.041444182395935E-001;-4.202631860971451E-002;-1.531537971459329E-003;3.573800204321742E-004;
2.418166666666667E+009;2.036917805671692E-001;-4.167317226529121E-002;-1.632433384656906E-003;3.674701729323715E-004;
2.418333333333334E+009;2.028803974390030E-001;-4.119513183832169E-002;-1.489107846282423E-003;4.120988887734711E-004;
2.418500000000000E+009;2.021122276782990E-001;-4.103286936879158E-002;-1.574967056512833E-003;5.617483984678984E-004;
2.418666666666667E+009;2.013102024793625E-001;-4.060203582048416E-002;-1.506461063399911E-003;5.155486287549138E-004;
2.418833333333334E+009;2.002180665731430E-001;-4.045120626688004E-002;-1.389331533573568E-003;3.667503187898547E-004;
2.419000000000000E+009;1.991221010684967E-001;-4.026028886437416E-002;-1.365755568258464E-003;3.707613504957408E-004;
2.419166666666667E+009;1.979276835918427E-001;-4.039987549185753E-002;-1.511383452452719E-003;3.936631546821445E-004;
2.419333333333334E+009;1.964127719402313E-001;-4.057822376489639E-002;-1.428739400580525E-003;3.654574102256447E-004;
2.419500000000000E+009;1.949018090963364E-001;-4.056830331683159E-002;-1.501639373600483E-003;4.556404892355204E-004;
2.419666666666667E+009;1.934229880571365E-001;-4.110800102353096E-002;-1.507749897427857E-003;3.510849783197045E-004;
2.419833333333334E+009;1.915847957134247E-001;-4.149712994694710E-002;-1.592477899976075E-003;3.133881546091288E-004;
2.420000000000000E+009;1.900799870491028E-001;-4.229556396603584E-002;-1.721315318718553E-003;3.336548106744885E-004;
2.420166666666667E+009;1.883947700262070E-001;-4.281106591224670E-002;-1.695540151558816E-003;4.287291085347533E-004;
2.420333333333334E+009;1.864587664604187E-001;-4.358819499611855E-002;-1.779685961082578E-003;5.424838745966554E-004;
2.420500000000000E+009;1.845522224903107E-001;-4.484502971172333E-002;-1.818994176574051E-003;6.985667278058827E-004;
2.420666666666667E+009;1.827656328678131E-001;-4.586007818579674E-002;-1.793193863704801E-003;8.601003210060298E-004;
2.420833333333334E+009;1.808305680751801E-001;-4.717197269201279E-002;-1.867114566266537E-003;8.998630801215768E-004;
2.421000000000000E+009;1.792256534099579E-001;-4.853172227740288E-002;-1.774365664459765E-003;1.019678078591824E-003;
2.421166666666667E+009;1.775005906820297E-001;-5.001540109515190E-002;-1.768760965205729E-003;1.146072638221085E-003;
2.421333333333334E+009;1.755042821168900E-001;-5.170062929391861E-002;-1.719649415463209E-003;1.312413369305432E-003;
2.421500000000000E+009;1.739031523466110E-001;-5.349259078502655E-002;-1.649809069931507E-003;1.313599408604205E-003;
2.421666666666667E+009;1.724192947149277E-001;-5.533909797668457E-002;-1.418454572558403E-003;1.304985955357552E-003;
2.421833333333334E+009;1.708582341670990E-001;-5.709614604711533E-002;-1.459729275666177E-003;1.342417206615210E-003;
2.422000000000000E+009;1.694122254848480E-001;-5.910197645425797E-002;-1.494854222983122E-003;1.299583469517529E-003;
2.422166666666667E+009;1.682977527379990E-001;-6.136186048388481E-002;-1.467799884267151E-003;1.421812688931823E-003;
2.422333333333334E+009;1.668280214071274E-001;-6.351201236248016E-002;-1.414868165738881E-003;1.437351340427995E-003;
2.422500000000000E+009;1.658511161804199E-001;-6.557144224643707E-002;-1.397180254571140E-003;1.444018329493702E-003;
2.422666666666667E+009;1.648000776767731E-001;-6.773832440376282E-002;-1.543990918435156E-003;1.447107060812414E-003;
2.422833333333334E+009;1.639902293682098E-001;-6.993476301431656E-002;-1.396444626152515E-003;1.738791354000568E-003;
2.423000000000000E+009;1.633925735950470E-001;-7.240583002567291E-002;-1.341055845841765E-003;1.633467967621982E-003;
2.423166666666667E+009;1.627201586961746E-001;-7.455663383007050E-002;-1.516454503871501E-003;1.805450418032706E-003;
2.423333333333334E+009;1.624605059623718E-001;-7.672250270843506E-002;-1.621172297745943E-003;1.799578429199755E-003;
2.423500000000000E+009;1.620732396841049E-001;-7.880324870347977E-002;-1.606027595698834E-003;2.060293685644865E-003;
2.423666666666667E+009;1.620377302169800E-001;-8.127667009830475E-002;-1.330955536104739E-003;2.346716355532408E-003;
2.423833333333334E+009;1.618120521306992E-001;-8.319076150655747E-002;-1.481337123550475E-003;2.135616028681397E-003;
2.424000000000000E+009;1.619032174348831E-001;-8.523743599653244E-002;-1.306547317653894E-003;2.527836943045259E-003;
2.424166666666667E+009;1.618487983942032E-001;-8.737349510192871E-002;-1.302918884903193E-003;2.691701054573059E-003;
2.424333333333334E+009;1.622409224510193E-001;-8.912757039070129E-002;-1.062312046997249E-003;2.607790054753423E-003;
2.424500000000000E+009;1.626766622066498E-001;-9.110856056213379E-002;-8.617450948804617E-004;2.827126532793045E-003;
2.424666666666667E+009;1.629304885864258E-001;-9.272882342338562E-002;-8.244331111200154E-004;3.018124494701624E-003;
2.424833333333334E+009;1.636185497045517E-001;-9.435214847326279E-002;-5.121227586641908E-004;2.969100140035152E-003;
2.425000000000000E+009;1.640181243419647E-001;-9.602977335453033E-002;-4.009228432551026E-004;3.233227645978332E-003;
2.425166666666667E+009;1.645410060882568E-001;-9.737422317266464E-002;-1.635056105442345E-004;3.042740514501929E-003;
2.425333333333334E+009;1.650830507278442E-001;-9.864103049039841E-002;4.439100666786544E-005;3.124588169157505E-003;
2.425500000000000E+009;1.658113151788712E-001;-9.982037544250488E-002;1.970730081666261E-004;3.130305791273713E-003;
2.425666666666667E+009;1.663902550935745E-001;-1.007309556007385E-001;1.990286691579968E-004;3.003092482686043E-003;
2.425833333333334E+009;1.669980585575104E-001;-1.018991619348526E-001;5.008483421988785E-004;2.986604114994407E-003;
2.426000000000000E+009;1.675968468189240E-001;-1.024278253316879E-001;5.271782283671200E-004;3.105838317424059E-003;
2.426166666666667E+009;1.683599650859833E-001;-1.032150834798813E-001;7.509368588216603E-004;2.860721200704575E-003;
2.426333333333334E+009;1.687831878662109E-001;-1.037949025630951E-001;9.127653902396560E-004;2.905434928834438E-003;
2.426500000000000E+009;1.695537120103836E-001;-1.043461710214615E-001;9.927951032295823E-004;2.883157692849636E-003;
2.426666666666667E+009;1.700288504362106E-001;-1.047231331467629E-001;1.198600977659226E-003;2.696676878258586E-003;
2.426833333333334E+009;1.706555187702179E-001;-1.051630154252052E-001;1.331843319348991E-003;2.782278694212437E-003;
2.427000000000000E+009;1.709868609905243E-001;-1.053709387779236E-001;1.392344711348414E-003;2.556618070229888E-003;
2.427166666666667E+009;1.713407933712006E-001;-1.055317148566246E-001;1.532678608782589E-003;2.630776260048151E-003;
2.427333333333334E+009;1.714817583560944E-001;-1.056496053934097E-001;1.578710391186178E-003;2.510357648134232E-003;
2.427500000000000E+009;1.716415584087372E-001;-1.058244183659554E-001;1.651310827583075E-003;2.465944271534681E-003;
2.427666666666667E+009;1.716421842575073E-001;-1.057603135704994E-001;1.738700782880187E-003;2.313449047505856E-003;
2.427833333333334E+009;1.716876924037933E-001;-1.057929173111916E-001;1.922583556734026E-003;2.255244180560112E-003;
