# Version 1.00
#
freq[Hz];re:Trc1_S11;im:Trc1_S11;re:Trc2_S21;im:Trc2_S21;
2.400000000000000E+009;1.578540205955505E-001;1.119071915745735E-001;-1.015861402265728E-003;3.058813745155931E-004;
2.400166666666667E+009;1.573188751935959E-001;1.098853796720505E-001;-8.448964217677712E-004;5.146196344867349E-004;
2.400333333333334E+009;1.569314748048782E-001;1.076525226235390E-001;-7.864886429160833E-004;4.721083387266845E-004;
2.400500000000000E+009;1.566888689994812E-001;1.050456985831261E-001;-6.764402496628463E-004;5.619801813736558E-004;
2.400666666666667E+009;1.563941091299057E-001;1.028548106551170E-001;-3.602117940317839E-004;4.815341380890459E-004;
2.400833333333334E+009;1.560499221086502E-001;9.978368133306503E-002;-4.165873397141695E-004;5.036160000599921E-004;
2.401000000000000E+009;1.558661311864853E-001;9.695293754339218E-002;-2.966310712508857E-004;3.199663478881121E-004;
2.401166666666667E+009;1.554688811302185E-001;9.405395388603210E-002;-9.960900933947414E-005;1.863167708506808E-004;
2.401333333333334E+009;1.556744724512100E-001;9.124810993671417E-002;-3.683746326714754E-004;2.780603535939008E-004;
2.401500000000000E+009;1.555963158607483E-001;8.822888880968094E-002;-4.484336532186717E-004;8.142851584125310E-005;
2.401666666666667E+009;1.556077450513840E-001;8.514059334993362E-002;-2.994656970258802E-004;8.650856034364551E-005;
2.401833333333334E+009;1.557238250970841E-001;8.225803077220917E-002;-5.839298828504980E-004;8.693418203620240E-005;
2.402000000000000E+009;1.562893539667130E-001;7.910530269145966E-002;-6.094552809372544E-004;1.462495565647259E-004;
2.402166666666667E+009;1.567790955305100E-001;7.632270455360413E-002;-6.459206924773753E-004;1.368898665532470E-004;
2.402333333333334E+009;1.574182063341141E-001;7.337629050016403E-002;-5.654605920426548E-004;2.584065659902990E-004;
2.402500000000000E+009;1.582346111536026E-001;7.027801871299744E-002;-5.658399313688278E-004;3.635402827057988E-004;
2.402666666666667E+009;1.593370586633682E-001;6.785196065902710E-002;-6.686456035822630E-004;4.912817967124283E-004;
2.402833333333334E+009;1.603525876998901E-001;6.499521434307098E-002;-7.255030213855207E-004;7.737000705674291E-004;
2.403000000000000E+009;1.617116481065750E-001;6.211149692535400E-002;-7.239021360874176E-004;6.828590412624180E-004;
2.403166666666667E+009;1.634367406368256E-001;5.966758355498314E-002;-5.890870816074312E-004;8.596414700150490E-004;
2.403333333333334E+009;1.646813750267029E-001;5.723003298044205E-002;-3.370931372046471E-004;9.460803121328354E-004;
2.403500000000000E+009;1.664428263902664E-001;5.463770404458046E-002;-4.523773968685418E-004;1.127819996327162E-003;
2.403666666666667E+009;1.679120808839798E-001;5.217709019780159E-002;-2.743267978075892E-004;1.092464430257678E-003;
2.403833333333334E+009;1.699089109897614E-001;5.003607645630837E-002;-1.032228392432444E-004;1.152358250692487E-003;
2.404000000000000E+009;1.713383793830872E-001;4.781208932399750E-002;2.048462192760781E-005;1.219795434735715E-003;
2.404166666666667E+009;1.733012050390244E-001;4.594431072473526E-002;3.329499741084874E-004;9.945959318429232E-004;
2.404333333333334E+009;1.749230027198792E-001;4.399956390261650E-002;3.606289392337203E-004;1.054173917509615E-003;
2.404500000000000E+009;1.767246425151825E-001;4.231775552034378E-002;4.797342990059406E-004;9.657699847593904E-004;
2.404666666666667E+009;1.786936372518539E-001;4.097384959459305E-002;6.970256799831986E-004;9.368185419589281E-004;
2.404833333333334E+009;1.804568022489548E-001;3.952393680810928E-002;7.723495364189148E-004;8.339762571267784E-004;
2.405000000000000E+009;1.820667386054993E-001;3.857486695051193E-002;8.532193023711443E-004;6.577827734872699E-004;
2.405166666666667E+009;1.838142424821854E-001;3.758684918284416E-002;9.032359812408686E-004;5.593639798462391E-004;
2.405333333333334E+009;1.853488832712174E-001;3.700354695320129E-002;7.761586457490921E-004;5.312041612342000E-004;
2.405500000000000E+009;1.871042102575302E-001;3.627336397767067E-002;1.059882109984756E-003;4.519367357715964E-004;
2.405666666666667E+009;1.886603087186813E-001;3.591781854629517E-002;9.911544620990753E-004;5.009918240830302E-004;
2.405833333333334E+009;1.901911050081253E-001;3.548766300082207E-002;1.158899744041264E-003;3.584018268156797E-004;
2.406000000000000E+009;1.916776001453400E-001;3.512598201632500E-002;1.179376733489335E-003;9.256823977921158E-005;
2.406166666666667E+009;1.929783672094345E-001;3.509649261832237E-002;9.776920778676868E-004;9.827953181229532E-005;
2.406333333333334E+009;1.942401826381683E-001;3.504494950175285E-002;1.059645088389516E-003;-2.599517574708443E-005;
2.406500000000000E+009;1.954102367162705E-001;3.521156311035156E-002;1.021513016894460E-003;-3.091710095759481E-005;
2.406666666666667E+009;1.963786035776138E-001;3.518874943256378E-002;9.104545461013913E-004;-2.013895136769861E-004;
2.406833333333334E+009;1.972316354513168E-001;3.549252822995186E-002;8.715214207768440E-004;-3.155192825943232E-004;
2.407000000000000E+009;1.978272646665573E-001;3.571127727627754E-002;8.729153778403997E-004;-2.177215210394934E-004;
2.407166666666667E+009;1.986427605152130E-001;3.578416258096695E-002;8.399717626161873E-004;-4.289389180485159E-004;
2.407333333333334E+009;1.988220959901810E-001;3.625875338912010E-002;8.333637961186469E-004;-3.578691976144910E-004;
2.407500000000000E+009;1.990078985691071E-001;3.671710565686226E-002;6.801445852033794E-004;-4.527903220150620E-004;
2.407666666666667E+009;1.993448734283447E-001;3.686195611953735E-002;6.117728771641851E-004;-4.580673994496465E-004;
2.407833333333334E+009;1.989729702472687E-001;3.700796887278557E-002;6.352516938932240E-004;-4.600178217515349E-004;
2.408000000000000E+009;1.993106454610825E-001;3.723680227994919E-002;5.540548590943217E-004;-6.253864266909659E-004;
2.408166666666667E+009;1.987597197294235E-001;3.741030022501946E-002;7.017966127023101E-004;-4.749334184452891E-004;
2.408333333333334E+009;1.985490322113037E-001;3.728000819683075E-002;5.694389110431075E-004;-5.987450131215155E-004;
2.408500000000000E+009;1.978238523006439E-001;3.722615167498589E-002;5.902957636862993E-004;-6.626037647947669E-004;
2.408666666666667E+009;1.973747760057449E-001;3.722881898283958E-002;4.987709107808769E-004;-5.779220955446363E-004;
2.408833333333334E+009;1.966473460197449E-001;3.697416931390762E-002;4.250589408911765E-004;-5.922045675106347E-004;
2.409000000000000E+009;1.956215202808380E-001;3.639313951134682E-002;3.126945230178535E-004;-5.787623231299222E-004;
2.409166666666667E+009;1.946908235549927E-001;3.585584834218025E-002;3.616532776504755E-004;-5.242830957286060E-004;
2.409333333333334E+009;1.937244683504105E-001;3.544182330369949E-002;3.256393829360604E-004;-5.778575432486832E-004;
2.409500000000000E+009;1.925980448722839E-001;3.442632406949997E-002;4.101431404706091E-004;-5.386316915974021E-004;
2.409666666666667E+009;1.914311498403549E-001;3.339034318923950E-002;3.194030141457915E-004;-4.977550706826150E-004;
2.409833333333334E+009;1.903279274702072E-001;3.221663832664490E-002;3.176073369104415E-004;-4.768583457916975E-004;
2.410000000000000E+009;1.890403479337692E-001;3.109043091535568E-002;3.348010650370270E-004;-5.492418422363699E-004;
2.410166666666667E+009;1.877610236406326E-001;2.956365607678890E-002;4.136361239943653E-004;-5.761708598583937E-004;
2.410333333333334E+009;1.864978671073914E-001;2.802130207419395E-002;4.449145635589957E-004;-5.122119328007102E-004;
2.410500000000000E+009;1.852578818798065E-001;2.641500718891621E-002;6.105860811658204E-004;-3.327471786178649E-004;
2.410666666666667E+009;1.842026561498642E-001;2.436656132340431E-002;7.529954309575260E-004;-4.424260696396232E-004;
2.410833333333334E+009;1.832904815673828E-001;2.230904996395111E-002;7.388733793050051E-004;-7.545176777057350E-004;
2.411000000000000E+009;1.821846365928650E-001;2.026960998773575E-002;8.176973788067699E-004;-7.213340140879154E-004;
2.411166666666667E+009;1.810814440250397E-001;1.824108883738518E-002;8.140713907778263E-004;-9.296942735090852E-004;
2.411333333333334E+009;1.800577789545059E-001;1.585396565496922E-002;7.387765799649060E-004;-1.041591167449951E-003;
2.411500000000000E+009;1.793323010206223E-001;1.346026081591845E-002;8.256199071183801E-004;-1.173992175608873E-003;
2.411666666666667E+009;1.788951307535172E-001;1.102854963392019E-002;6.148287211544812E-004;-1.418626634404063E-003;
2.411833333333334E+009;1.781840324401856E-001;8.619912900030613E-003;4.906664835289121E-004;-1.379479421302676E-003;
2.412000000000000E+009;1.781650930643082E-001;5.751879885792732E-003;4.756719863507897E-004;-1.592686632648110E-003;
2.412166666666667E+009;1.778036057949066E-001;3.512013936415315E-003;3.797833633143455E-004;-1.746971276588738E-003;
2.412333333333334E+009;1.777259707450867E-001;7.339749718084931E-004;1.314447144977748E-004;-1.692382385954261E-003;
2.412500000000000E+009;1.778908967971802E-001;-1.853116555139422E-003;-3.661177106550895E-005;-1.782445819117129E-003;
2.412666666666667E+009;1.781919449567795E-001;-4.502297379076481E-003;-1.416312006767839E-004;-1.789427013136447E-003;
2.412833333333334E+009;1.786539852619171E-001;-7.070139050483704E-003;-8.646418427815661E-005;-1.794432988390327E-003;
2.413000000000000E+009;1.792040765285492E-001;-9.773624129593372E-003;-3.903789038304240E-004;-1.870153588242829E-003;
2.413166666666667E+009;1.797030419111252E-001;-1.229724194854498E-002;-5.647358484566212E-004;-1.842925441451371E-003;
2.413333333333334E+009;1.806460022926331E-001;-1.498017460107803E-002;-7.496523321606219E-004;-1.897761016152799E-003;
2.413500000000000E+009;1.814220398664475E-001;-1.765908114612103E-002;-7.265260792337358E-004;-1.762150204740465E-003;
2.413666666666667E+009;1.824532598257065E-001;-1.998313516378403E-002;-1.014030887745321E-003;-1.529061119072139E-003;
2.413833333333334E+009;1.835323274135590E-001;-2.229766920208931E-002;-1.099976012483239E-003;-1.430968753993511E-003;
2.414000000000000E+009;1.846748143434525E-001;-2.474809996783733E-002;-1.225586165674031E-003;-1.342628151178360E-003;
2.414166666666667E+009;1.858838796615601E-001;-2.678446844220161E-002;-1.203565509058535E-003;-1.334915286861360E-003;
2.414333333333334E+009;1.871086359024048E-001;-2.920770086348057E-002;-1.328514888882637E-003;-1.113858306780458E-003;
2.414500000000000E+009;1.885618120431900E-001;-3.095571696758270E-002;-1.272018882445991E-003;-1.118848216719925E-003;
2.414666666666667E+009;1.897701025009155E-001;-3.270166739821434E-002;-1.335257664322853E-003;-1.028124708682299E-003;
2.414833333333334E+009;1.910484582185745E-001;-3.435762226581574E-002;-1.385953393764794E-003;-1.061960938386619E-003;
2.415000000000000E+009;1.922804862260819E-001;-3.600278124213219E-002;-1.120095024816692E-003;-1.006329781375825E-003;
2.415166666666667E+009;1.937274932861328E-001;-3.723006695508957E-002;-1.417671097442508E-003;-8.393794996663928E-004;
2.415333333333334E+009;1.950711607933044E-001;-3.854665532708168E-002;-1.378639950416982E-003;-1.029720646329224E-003;
2.415500000000000E+009;1.964297741651535E-001;-3.955607861280441E-002;-1.445767469704151E-003;-9.028333006426692E-004;
2.415666666666667E+009;1.977022290229797E-001;-4.048906266689301E-002;-1.631763065233827E-003;-9.251888259314001E-004;
2.415833333333334E+009;1.989933848381043E-001;-4.121389240026474E-002;-1.726917340420187E-003;-8.173464448191226E-004;
2.416000000000000E+009;1.999242007732391E-001;-4.198431968688965E-002;-1.645578420720995E-003;-8.012359612621367E-004;
2.416166666666667E+009;2.010821700096130E-001;-4.258101433515549E-002;-1.692701363936067E-003;-8.009474840946496E-004;
2.416333333333334E+009;2.020317763090134E-001;-4.295196756720543E-002;-1.715234713628888E-003;-7.038330077193677E-004;
2.416500000000000E+009;2.028662860393524E-001;-4.329578205943108E-002;-1.896537141874433E-003;-5.977583350613713E-004;
2.416666666666667E+009;2.035424560308456E-001;-4.368406161665916E-002;-1.936040353029966E-003;-3.287465078756213E-004;
2.416833333333334E+009;2.039401233196259E-001;-4.363641142845154E-002;-1.958408625796437E-003;-3.576525195967406E-004;
2.417000000000000E+009;2.046071141958237E-001;-4.371779784560204E-002;-1.934668631292880E-003;-8.367469854420051E-005;
2.417166666666667E+009;2.046641707420349E-001;-4.351786896586418E-002;-1.988601405173540E-003;3.622272197389975E-005;
2.417333333333334E+009;2.047539353370667E-001;-4.315799474716187E-002;-1.899980008602142E-003;1.205771186505444E-004;
2.417500000000000E+009;2.047675549983978E-001;-4.325882345438004E-002;-1.817869488149881E-003;2.397945063421503E-004;
2.417666666666667E+009;2.046471685171127E-001;-4.273412376642227E-002;-1.845809281803668E-003;2.461998956277967E-004;
2.417833333333334E+009;2.045334130525589E-001;-4.240271821618080E-002;-1.754515455104411E-003;3.898142022080720E-004;
2.418000000000000E+009;2.040373533964157E-001;-4.184579476714134E-002;-1.692736754193902E-003;4.350902163423598E-004;
2.418166666666667E+009;2.035404443740845E-001;-4.155163839459419E-002;-1.760599785484374E-003;3.843913436867297E-004;
2.418333333333334E+009;2.028714120388031E-001;-4.122637584805489E-002;-1.490152557380498E-003;6.289668381214142E-004;
2.418500000000000E+009;2.020490467548370E-001;-4.089754447340965E-002;-1.450441661290824E-003;4.832152917515487E-004;
2.418666666666667E+009;2.012918293476105E-001;-4.048265889286995E-002;-1.495667849667370E-003;3.653746680356562E-004;
2.418833333333334E+009;2.000228315591812E-001;-4.029331728816032E-002;-1.590773114003241E-003;5.889090243726969E-004;
2.419000000000000E+009;1.988401114940643E-001;-4.024210944771767E-002;-1.368594937957823E-003;4.588792799040675E-004;
2.419166666666667E+009;1.977360546588898E-001;-4.018623381853104E-002;-1.377628184854984E-003;4.422698693815619E-004;
2.419333333333334E+009;1.964808106422424E-001;-4.050535708665848E-002;-1.549288863316178E-003;4.563394177239388E-004;
2.419500000000000E+009;1.948097646236420E-001;-4.047055542469025E-002;-1.519573037512600E-003;4.616281948983669E-004;
2.419666666666667E+009;1.933260709047318E-001;-4.105138406157494E-002;-1.563723897561431E-003;5.266362568363547E-004;
2.419833333333334E+009;1.916951537132263E-001;-4.135622829198837E-002;-1.626752782613039E-003;4.585644637700170E-004;
2.420000000000000E+009;1.900128871202469E-001;-4.191575944423676E-002;-1.681794645264745E-003;4.558128130156547E-004;
2.420166666666667E+009;1.882237344980240E-001;-4.265879839658737E-002;-1.831278321333230E-003;5.984837189316750E-004;
2.420333333333334E+009;1.863631606101990E-001;-4.372434318065643E-002;-1.774149830453098E-003;7.624085992574692E-004;
2.420500000000000E+009;1.844862848520279E-001;-4.459813237190247E-002;-1.800703699700534E-003;7.925491663627327E-004;
2.420666666666667E+009;1.827238351106644E-001;-4.574329778552055E-002;-1.935250824317336E-003;7.390871760435402E-004;
2.420833333333334E+009;1.808688938617706E-001;-4.686692357063294E-002;-1.901653013192117E-003;1.061654184013605E-003;
2.421000000000000E+009;1.790453195571899E-001;-4.842926189303398E-002;-1.887854887172580E-003;1.020405907183886E-003;
2.421166666666667E+009;1.773704141378403E-001;-5.003307759761810E-002;-1.695971353910863E-003;1.239527249708772E-003;
2.421333333333334E+009;1.754534542560577E-001;-5.146953836083412E-002;-1.675360254012048E-003;1.178880687803030E-003;
2.421500000000000E+009;1.738826781511307E-001;-5.343567579984665E-002;-1.678176457062364E-003;1.278055482544005E-003;
2.421666666666667E+009;1.722830682992935E-001;-5.519807338714600E-002;-1.693649566732347E-003;1.247002626769245E-003;
2.421833333333334E+009;1.707686036825180E-001;-5.715151503682137E-002;-1.513990573585033E-003;1.332831219770014E-003;
2.422000000000000E+009;1.692204177379608E-001;-5.904947221279144E-002;-1.578127616085112E-003;1.411128090694547E-003;
2.422166666666667E+009;1.682593226432800E-001;-6.123529747128487E-002;-1.299038180150092E-003;1.470624818466604E-003;
2.422333333333334E+009;1.669641733169556E-001;-6.333232671022415E-002;-1.496569020673633E-003;1.414320315234363E-003;
2.422500000000000E+009;1.657480150461197E-001;-6.553418189287186E-002;-1.493213349021971E-003;1.447273069061339E-003;
2.422666666666667E+009;1.648300141096115E-001;-6.774280220270157E-002;-1.518942299298942E-003;1.492193434387445E-003;
2.422833333333334E+009;1.640392690896988E-001;-6.989013403654099E-002;-1.391516299918294E-003;1.481402781791985E-003;
2.423000000000000E+009;1.633988618850708E-001;-7.220651954412460E-002;-1.567486324347556E-003;1.682945643551648E-003;
2.423166666666667E+009;1.626911610364914E-001;-7.448592036962509E-002;-1.578362425789237E-003;1.868210267275572E-003;
2.423333333333334E+009;1.623762696981430E-001;-7.683173567056656E-002;-1.495847711339593E-003;1.870783860795200E-003;
2.423500000000000E+009;1.621233671903610E-001;-7.884746789932251E-002;-1.557012670673430E-003;2.120443619787693E-003;
2.423666666666667E+009;1.620914489030838E-001;-8.104899525642395E-002;-1.600113231688738E-003;2.227178541943431E-003;
2.423833333333334E+009;1.617485284805298E-001;-8.317483216524124E-002;-1.348465448245406E-003;2.339797560125589E-003;
2.424000000000000E+009;1.618628799915314E-001;-8.512389659881592E-002;-1.229590503498912E-003;2.453702269122005E-003;
2.424166666666667E+009;1.620362401008606E-001;-8.709985017776489E-002;-1.280163181945682E-003;2.732958644628525E-003;
2.424333333333334E+009;1.622096300125122E-001;-8.904098719358444E-002;-8.576257969252765E-004;2.730552107095718E-003;
2.424500000000000E+009;1.627053618431091E-001;-9.101351350545883E-002;-8.638490107841790E-004;3.025577170774341E-003;
2.424666666666667E+009;1.628075838088989E-001;-9.271062165498734E-002;-5.632188403978944E-004;2.983876504004002E-003;
2.424833333333334E+009;1.634858399629593E-001;-9.430238604545593E-002;-3.634860331658274E-004;2.998653799295425E-003;
2.425000000000000E+009;1.640952229499817E-001;-9.581794589757919E-002;-2.610491355881095E-004;2.967958105728030E-003;
2.425166666666667E+009;1.644906401634216E-001;-9.724675863981247E-002;-2.205864147981629E-004;2.942888066172600E-003;
2.425333333333334E+009;1.650592982769013E-001;-9.846355766057968E-002;1.397119194734842E-004;3.150763921439648E-003;
2.425500000000000E+009;1.656220704317093E-001;-9.972215443849564E-002;1.602285046828911E-004;3.014126792550087E-003;
2.425666666666667E+009;1.663809865713120E-001;-1.006459221243858E-001;2.425432030577213E-004;3.111242083832622E-003;
2.425833333333334E+009;1.669774502515793E-001;-1.017388775944710E-001;5.679014720954001E-004;2.901171334087849E-003;
2.426000000000000E+009;1.676177978515625E-001;-1.024402678012848E-001;5.651899264194071E-004;2.974331611767411E-003;
2.426166666666667E+009;1.683524996042252E-001;-1.031067520380020E-001;7.801795727573335E-004;2.964185783639550E-003;
2.426333333333334E+009;1.688280701637268E-001;-1.038213223218918E-001;8.827128331176937E-004;2.847756491973996E-003;
2.426500000000000E+009;1.695603877305985E-001;-1.042412221431732E-001;1.072598737664521E-003;2.832258585840464E-003;
2.426666666666667E+009;1.701138019561768E-001;-1.045884713530541E-001;1.301634823903441E-003;2.790445461869240E-003;
2.426833333333334E+009;1.706346124410629E-001;-1.049773842096329E-001;1.341377501375973E-003;2.682372462004423E-003;
2.427000000000000E+009;1.709564030170441E-001;-1.052336469292641E-001;1.569214393384755E-003;2.672763075679541E-003;
2.427166666666667E+009;1.714166104793549E-001;-1.053187772631645E-001;1.524024060927331E-003;2.565603470429778E-003;
2.427333333333334E+009;1.716235280036926E-001;-1.054992973804474E-001;1.579407486133277E-003;2.518008928745985E-003;
2.427500000000000E+009;1.717135310173035E-001;-1.056575849652290E-001;1.723865862004459E-003;2.494354499503970E-003;
2.427666666666667E+009;1.717347204685211E-001;-1.056839078664780E-001;1.863564131781459E-003;2.431689528748393E-003;
2.427833333333334E+009;1.717377305030823E-001;-1.056659147143364E-001;1.877612899988890E-003;2.179437549784780E-003;
