# Version 1.00
#
freq[Hz];re:Trc1_S11;im:Trc1_S11;re:Trc2_S21;im:Trc2_S21;
2.400000000000000E+009;1.579626202583313E-001;1.115906536579132E-001;-1.061912043951452E-003;3.826267202384770E-004;
2.400166666666667E+009;1.574587076902390E-001;1.095299944281578E-001;-1.100321998819709E-003;3.538016171660274E-004;
2.400333333333334E+009;1.570552885532379E-001;1.073457226157188E-001;-1.011247048154473E-003;4.998203949071467E-004;
2.400500000000000E+009;1.565018892288208E-001;1.049031987786293E-001;-7.325815386138856E-004;5.620521260425448E-004;
2.400666666666667E+009;1.562183946371079E-001;1.023185625672340E-001;-6.940595339983702E-004;5.467595183290541E-004;
2.400833333333334E+009;1.558876484632492E-001;9.940491616725922E-002;-5.769395502284169E-004;5.477050435729325E-004;
2.401000000000000E+009;1.555237472057343E-001;9.672195464372635E-002;-4.538082866929472E-004;4.449935513548553E-004;
2.401166666666667E+009;1.553003340959549E-001;9.382169693708420E-002;-3.866658953484148E-004;2.828974393196404E-004;
2.401333333333334E+009;1.553188264369965E-001;9.084355086088181E-002;-4.054589080624282E-004;1.777867437340319E-004;
2.401500000000000E+009;1.554828137159348E-001;8.790300786495209E-002;-4.082240338902921E-004;2.332755830138922E-004;
2.401666666666667E+009;1.552807390689850E-001;8.487260341644287E-002;-5.482322885654867E-004;4.798248482984491E-005;
2.401833333333334E+009;1.553672999143601E-001;8.190465718507767E-002;-5.343509255908430E-004;1.123983238358051E-004;
2.402000000000000E+009;1.561228930950165E-001;7.884232699871063E-002;-6.193563458509743E-004;2.565444447100163E-004;
2.402166666666667E+009;1.565324813127518E-001;7.604056596755981E-002;-8.377406047657132E-004;2.111777430400252E-004;
2.402333333333334E+009;1.571961641311646E-001;7.305660843849182E-002;-8.025793940760195E-004;3.744028799701482E-004;
2.402500000000000E+009;1.582655161619186E-001;7.021002471446991E-002;-1.035573426634073E-003;3.421652945689857E-004;
2.402666666666667E+009;1.593041270971298E-001;6.752102822065353E-002;-7.642357377335429E-004;5.639378796331585E-004;
2.402833333333334E+009;1.601499319076538E-001;6.467197835445404E-002;-7.379329181276262E-004;7.761485176160932E-004;
2.403000000000000E+009;1.615492254495621E-001;6.200549006462097E-002;-7.073768065311015E-004;6.740697426721454E-004;
2.403166666666667E+009;1.631433814764023E-001;5.935147777199745E-002;-5.778031190857291E-004;7.739270804449916E-004;
2.403333333333334E+009;1.644297391176224E-001;5.681098625063896E-002;-4.513863823376596E-004;9.426624164916575E-004;
2.403500000000000E+009;1.661109179258347E-001;5.428482592105866E-002;-5.305131198838353E-004;1.091618789359927E-003;
2.403666666666667E+009;1.680042445659638E-001;5.196687951683998E-002;-2.583364839665592E-004;1.026428537443280E-003;
2.403833333333334E+009;1.695997416973114E-001;4.962555319070816E-002;-2.931235067080706E-004;1.141355722211301E-003;
2.404000000000000E+009;1.710796803236008E-001;4.762291535735130E-002;-4.845740841119550E-005;1.277312869206071E-003;
2.404166666666667E+009;1.730238646268845E-001;4.592390730977058E-002;1.204497675644234E-004;1.142655848525465E-003;
2.404333333333334E+009;1.747996360063553E-001;4.391388967633247E-002;2.284218498971313E-004;1.113449689000845E-003;
2.404500000000000E+009;1.766176968812943E-001;4.216859489679337E-002;5.559984128922224E-004;1.029466744512320E-003;
2.404666666666667E+009;1.784928143024445E-001;4.072590917348862E-002;6.433635717257857E-004;1.126545248553157E-003;
2.404833333333334E+009;1.802336126565933E-001;3.942430019378662E-002;5.669076927006245E-004;9.018841665238142E-004;
2.405000000000000E+009;1.818538159132004E-001;3.850679472088814E-002;7.535413606092334E-004;8.710371330380440E-004;
2.405166666666667E+009;1.837731897830963E-001;3.752028569579125E-002;6.903941975906491E-004;8.195366244763136E-004;
2.405333333333334E+009;1.853425055742264E-001;3.692524135112763E-002;8.428203291259706E-004;7.276033284142613E-004;
2.405500000000000E+009;1.869076192378998E-001;3.617350384593010E-002;8.418562938459218E-004;5.409760051406920E-004;
2.405666666666667E+009;1.886152029037476E-001;3.570985794067383E-002;9.022600715979934E-004;4.408858949318528E-004;
2.405833333333334E+009;1.901206672191620E-001;3.533383458852768E-002;8.697274024598301E-004;2.758793707471341E-004;
2.406000000000000E+009;1.915123462677002E-001;3.509100526571274E-002;9.431704529561102E-004;1.929133868543431E-004;
2.406166666666667E+009;1.928438544273377E-001;3.492335975170136E-002;8.070452604442835E-004;1.703474117675796E-004;
2.406333333333334E+009;1.940938085317612E-001;3.501742333173752E-002;7.129156729206443E-004;2.616781239339616E-005;
2.406500000000000E+009;1.952566206455231E-001;3.511353954672813E-002;7.643721182830632E-004;-6.253075844142586E-005;
2.406666666666667E+009;1.962166577577591E-001;3.519204631447792E-002;8.082980639301240E-004;-2.123994927387685E-004;
2.406833333333334E+009;1.971695721149445E-001;3.543552756309509E-002;9.878278942778707E-004;-2.341406943742186E-004;
2.407000000000000E+009;1.976464539766312E-001;3.577018529176712E-002;7.812411640770733E-004;-3.369634505361319E-004;
2.407166666666667E+009;1.984034478664398E-001;3.577388077974320E-002;6.992970011197031E-004;-2.947390894405544E-004;
2.407333333333334E+009;1.985089182853699E-001;3.622131422162056E-002;6.744655547663570E-004;-2.274845755891874E-004;
2.407500000000000E+009;1.989141851663590E-001;3.652631863951683E-002;6.455437978729606E-004;-5.468609160743654E-004;
2.407666666666667E+009;1.990761756896973E-001;3.674491867423058E-002;5.585827748291194E-004;-4.533450119197369E-004;
2.407833333333334E+009;1.989617794752121E-001;3.698168322443962E-002;5.532751092687249E-004;-5.889949970878661E-004;
2.408000000000000E+009;1.989741623401642E-001;3.719987347722054E-002;6.374422810040414E-004;-5.046809674240649E-004;
2.408166666666667E+009;1.985387951135635E-001;3.726635500788689E-002;5.766293033957481E-004;-4.799297021236271E-004;
2.408333333333334E+009;1.982896327972412E-001;3.737354278564453E-002;5.487151211127639E-004;-5.934739019721746E-004;
2.408500000000000E+009;1.976983547210693E-001;3.733425959944725E-002;3.155001613777131E-004;-4.998486256226897E-004;
2.408666666666667E+009;1.971045434474945E-001;3.715053945779800E-002;3.942813200410456E-004;-5.074993241578341E-004;
2.408833333333334E+009;1.964516937732697E-001;3.694548085331917E-002;2.786182740237564E-004;-5.708982353098691E-004;
2.409000000000000E+009;1.955573707818985E-001;3.641650453209877E-002;4.375722783152014E-004;-5.354459281079471E-004;
2.409166666666667E+009;1.945476680994034E-001;3.614103421568871E-002;3.074002452194691E-004;-4.276356485206634E-004;
2.409333333333334E+009;1.935253739356995E-001;3.543060645461083E-002;2.759361523203552E-004;-4.199764807708561E-004;
2.409500000000000E+009;1.922641396522522E-001;3.455192223191261E-002;1.758224534569308E-004;-4.598429659381509E-004;
2.409666666666667E+009;1.912729293107987E-001;3.346990793943405E-002;2.753870794549584E-004;-2.563482557889074E-004;
2.409833333333334E+009;1.899156272411346E-001;3.237929940223694E-002;2.861691464204341E-004;-2.895093930419534E-004;
2.410000000000000E+009;1.887068450450897E-001;3.110452368855476E-002;3.957038861699402E-004;-3.102299233432859E-004;
2.410166666666667E+009;1.876049488782883E-001;2.970336005091667E-002;5.361713701859117E-004;-3.948988742195070E-004;
2.410333333333334E+009;1.863472610712051E-001;2.823666669428349E-002;3.816508105956018E-004;-3.084334894083440E-004;
2.410500000000000E+009;1.850074231624603E-001;2.641882933676243E-002;5.683531053364277E-004;-4.379974561743438E-004;
2.410666666666667E+009;1.839060634374619E-001;2.438729815185070E-002;6.701159873045981E-004;-5.509912734851241E-004;
2.410833333333334E+009;1.829017847776413E-001;2.247839421033859E-002;7.501824293285608E-004;-6.013506790623069E-004;
2.411000000000000E+009;1.818207651376724E-001;2.040126919746399E-002;7.514100288972259E-004;-6.450241198763251E-004;
2.411166666666667E+009;1.807363331317902E-001;1.831783540546894E-002;8.317842730320990E-004;-7.351017557084560E-004;
2.411333333333334E+009;1.798890978097916E-001;1.573907025158405E-002;7.900904747657478E-004;-9.151134872809053E-004;
2.411500000000000E+009;1.791114807128906E-001;1.356063969433308E-002;6.696741911582649E-004;-1.081840484403074E-003;
2.411666666666667E+009;1.786140799522400E-001;1.116635836660862E-002;6.539769819937646E-004;-1.387877971865237E-003;
2.411833333333334E+009;1.779086887836456E-001;8.658592589199543E-003;6.137339514680207E-004;-1.430432312190533E-003;
2.412000000000000E+009;1.777032464742661E-001;6.018978077918291E-003;5.242317565716803E-004;-1.479864120483398E-003;
2.412166666666667E+009;1.775436401367188E-001;3.617343027144671E-003;3.523431951180100E-004;-1.589518855325878E-003;
2.412333333333334E+009;1.773775070905685E-001;8.679378079250455E-004;2.174433320760727E-004;-1.731780241243541E-003;
2.412500000000000E+009;1.775217801332474E-001;-1.685989787802100E-003;-1.910697392304428E-006;-1.726259361021221E-003;
2.412666666666667E+009;1.780472248792648E-001;-4.319112747907639E-003;-7.791254029143602E-005;-1.885972800664604E-003;
2.412833333333334E+009;1.783777475357056E-001;-7.131226826459169E-003;-3.049886727239937E-004;-1.777364639565349E-003;
2.413000000000000E+009;1.788139790296555E-001;-9.548236615955830E-003;-3.997461753897369E-004;-1.716134138405323E-003;
2.413166666666667E+009;1.796665936708450E-001;-1.213957369327545E-002;-6.030718795955181E-004;-1.876857946626842E-003;
2.413333333333334E+009;1.802889555692673E-001;-1.473924890160561E-002;-6.528723752126098E-004;-1.677974825724959E-003;
2.413500000000000E+009;1.811520308256149E-001;-1.724766381084919E-002;-8.320330525748432E-004;-1.590244122780860E-003;
2.413666666666667E+009;1.823289096355438E-001;-1.991464383900166E-002;-9.410643833689392E-004;-1.514980802312493E-003;
2.413833333333334E+009;1.834739893674851E-001;-2.213189750909805E-002;-1.001257915049791E-003;-1.544514088891447E-003;
2.414000000000000E+009;1.844869256019592E-001;-2.451045252382755E-002;-1.049751648679376E-003;-1.383162452839315E-003;
2.414166666666667E+009;1.858065277338028E-001;-2.655970863997936E-002;-1.114070066250861E-003;-1.233999500982463E-003;
2.414333333333334E+009;1.869602352380753E-001;-2.896514348685741E-002;-1.163827371783555E-003;-1.291666878387332E-003;
2.414500000000000E+009;1.884355396032333E-001;-3.076680935919285E-002;-1.249738386832178E-003;-1.239852281287313E-003;
2.414666666666667E+009;1.896317154169083E-001;-3.252704069018364E-002;-1.268613268621266E-003;-1.183268381282687E-003;
2.414833333333334E+009;1.907940357923508E-001;-3.429320454597473E-002;-1.275929971598089E-003;-1.020694966427982E-003;
2.415000000000000E+009;1.923065930604935E-001;-3.583849966526032E-002;-1.520696678198874E-003;-1.060668844729662E-003;
2.415166666666667E+009;1.936648190021515E-001;-3.712597861886025E-002;-1.309053972363472E-003;-1.020395429804921E-003;
2.415333333333334E+009;1.949873715639114E-001;-3.831528127193451E-002;-1.483281143009663E-003;-8.561564609408379E-004;
2.415500000000000E+009;1.963501572608948E-001;-3.919746726751328E-002;-1.514103729277849E-003;-8.429400040768087E-004;
2.415666666666667E+009;1.976336836814880E-001;-4.020513966679573E-002;-1.492614508606494E-003;-8.648961666040123E-004;
2.415833333333334E+009;1.988897472620010E-001;-4.102599993348122E-002;-1.456937752664089E-003;-8.166296174749732E-004;
2.416000000000000E+009;1.999267637729645E-001;-4.173441231250763E-002;-1.691731740720570E-003;-7.050698040984571E-004;
2.416166666666667E+009;2.010333836078644E-001;-4.261060804128647E-002;-1.808707835152745E-003;-5.504724686034024E-004;
2.416333333333334E+009;2.020425051450729E-001;-4.273734241724014E-002;-1.872995519079268E-003;-5.074740038253367E-004;
2.416500000000000E+009;2.027915567159653E-001;-4.306677728891373E-002;-1.981156645342708E-003;-6.647665868513286E-004;
2.416666666666667E+009;2.034916579723358E-001;-4.345665499567986E-002;-1.992161152884364E-003;-4.236088425386697E-004;
2.416833333333334E+009;2.040811181068420E-001;-4.344406351447105E-002;-1.960184657946229E-003;-2.521882706787437E-004;
2.417000000000000E+009;2.045454680919647E-001;-4.364312440156937E-002;-1.898634363897145E-003;1.475624503655126E-005;
2.417166666666667E+009;2.045772522687912E-001;-4.343911260366440E-002;-2.055250573903322E-003;-1.287667546421289E-004;
2.417333333333334E+009;2.046895623207092E-001;-4.315691068768501E-002;-1.966982381418347E-003;2.403234539087862E-004;
2.417500000000000E+009;2.048270553350449E-001;-4.302036762237549E-002;-1.895380904898047E-003;2.615906414575875E-004;
2.417666666666667E+009;2.045786976814270E-001;-4.249331727623940E-002;-1.905458862893283E-003;3.001650620717555E-004;
2.417833333333334E+009;2.044707387685776E-001;-4.217188432812691E-002;-1.808993169106543E-003;4.221571434754878E-004;
2.418000000000000E+009;2.040372788906097E-001;-4.170966520905495E-002;-1.585748861543834E-003;3.637319605331868E-004;
2.418166666666667E+009;2.035088241100311E-001;-4.130485653877258E-002;-1.664610928855836E-003;4.396011354401708E-004;
2.418333333333334E+009;2.028755396604538E-001;-4.094880446791649E-002;-1.495365751907229E-003;5.503554129973054E-004;
2.418500000000000E+009;2.020362317562103E-001;-4.072642326354981E-002;-1.556828501634300E-003;4.996097995899618E-004;
2.418666666666667E+009;2.012846171855927E-001;-4.029578343033791E-002;-1.435452606528997E-003;4.873219004366547E-004;
2.418833333333334E+009;2.001986056566238E-001;-4.013805091381073E-002;-1.431207521818578E-003;4.027643299195916E-004;
2.419000000000000E+009;1.989065110683441E-001;-4.007570445537567E-002;-1.431584008969367E-003;4.982746322639287E-004;
2.419166666666667E+009;1.979688853025436E-001;-4.003055766224861E-002;-1.342935254797339E-003;5.916440277360380E-004;
2.419333333333334E+009;1.965109556913376E-001;-4.019675403833389E-002;-1.472065341658890E-003;5.038458039052784E-004;
2.419500000000000E+009;1.949050724506378E-001;-4.036997631192207E-002;-1.636637025512755E-003;4.282168520148844E-004;
2.419666666666667E+009;1.932916641235352E-001;-4.080604389309883E-002;-1.492141163907945E-003;4.462873912416399E-004;
2.419833333333334E+009;1.918575167655945E-001;-4.120483994483948E-002;-1.604901277460158E-003;4.736442351713777E-004;
2.420000000000000E+009;1.902116090059280E-001;-4.171338677406311E-002;-1.771368435584009E-003;6.235378677956760E-004;
2.420166666666667E+009;1.882548928260803E-001;-4.241454973816872E-002;-1.700134947896004E-003;6.047501810826361E-004;
2.420333333333334E+009;1.866217702627182E-001;-4.338883236050606E-002;-1.807558117434382E-003;5.916939699091017E-004;
2.420500000000000E+009;1.846953332424164E-001;-4.451465979218483E-002;-1.810296904295683E-003;9.126044460572302E-004;
2.420666666666667E+009;1.827342212200165E-001;-4.534635692834854E-002;-1.656669424846768E-003;8.733872091397643E-004;
2.420833333333334E+009;1.809999346733093E-001;-4.675793647766113E-002;-1.818143762648106E-003;8.990954956971109E-004;
2.421000000000000E+009;1.792463213205338E-001;-4.810575023293495E-002;-1.800062367692590E-003;1.080571208149195E-003;
2.421166666666667E+009;1.776955127716065E-001;-4.976104572415352E-002;-1.728189643472433E-003;1.195777556858957E-003;
2.421333333333334E+009;1.756957769393921E-001;-5.118197575211525E-002;-1.697403960861266E-003;1.493672374635935E-003;
2.421500000000000E+009;1.739673465490341E-001;-5.327628180384636E-002;-1.599133131094277E-003;1.371320686303079E-003;
2.421666666666667E+009;1.724854558706284E-001;-5.497232452034950E-002;-1.614806824363768E-003;1.429824042133987E-003;
2.421833333333334E+009;1.710023432970047E-001;-5.690429732203484E-002;-1.444568275474012E-003;1.314317807555199E-003;
2.422000000000000E+009;1.695486754179001E-001;-5.889603495597839E-002;-1.398660591803491E-003;1.644460950046778E-003;
2.422166666666667E+009;1.684532910585403E-001;-6.106460839509964E-002;-1.364996540360153E-003;1.509714638814330E-003;
2.422333333333334E+009;1.671122759580612E-001;-6.327518820762634E-002;-1.409341348335147E-003;1.525152125395834E-003;
2.422500000000000E+009;1.660116016864777E-001;-6.527534127235413E-002;-1.559657161124051E-003;1.521238358691335E-003;
2.422666666666667E+009;1.650077104568481E-001;-6.745625287294388E-002;-1.370753394439817E-003;1.462534186430275E-003;
2.422833333333334E+009;1.644300967454910E-001;-6.976719200611115E-002;-1.550838467665017E-003;1.716282917186618E-003;
2.423000000000000E+009;1.635222285985947E-001;-7.201981544494629E-002;-1.399090979248285E-003;1.699719578027725E-003;
2.423166666666667E+009;1.629519909620285E-001;-7.421671599149704E-002;-1.508507179096341E-003;1.845326856710017E-003;
2.423333333333334E+009;1.626162230968475E-001;-7.655822485685349E-002;-1.437388476915658E-003;1.954426988959312E-003;
2.423500000000000E+009;1.622023731470108E-001;-7.854905724525452E-002;-1.435964484699071E-003;2.178905531764031E-003;
2.423666666666667E+009;1.623404920101166E-001;-8.087468147277832E-002;-1.418559462763369E-003;2.260684268549085E-003;
2.423833333333334E+009;1.619603335857391E-001;-8.295013010501862E-002;-1.322666183114052E-003;2.476603025570512E-003;
2.424000000000000E+009;1.622283011674881E-001;-8.505638688802719E-002;-1.182769075967372E-003;2.647550543770194E-003;
2.424166666666667E+009;1.620399802923203E-001;-8.686247467994690E-002;-1.064487849362195E-003;2.768314443528652E-003;
2.424333333333334E+009;1.624535918235779E-001;-8.893419057130814E-002;-9.831811767071486E-004;2.806333126500249E-003;
2.424500000000000E+009;1.628032773733139E-001;-9.109732508659363E-002;-6.871445802971721E-004;3.066920908167958E-003;
2.424666666666667E+009;1.632082313299179E-001;-9.262018650770187E-002;-5.372142186388373E-004;3.087832592427731E-003;
2.424833333333334E+009;1.636918634176254E-001;-9.418886899948120E-002;-3.599674964789301E-004;3.070377279073000E-003;
2.425000000000000E+009;1.643155664205551E-001;-9.585691243410111E-002;-2.303899673279375E-004;3.213923890143633E-003;
2.425166666666667E+009;1.646731644868851E-001;-9.713242202997208E-002;-8.337814506376162E-005;3.128235694020987E-003;
2.425333333333334E+009;1.651567071676254E-001;-9.848000109195709E-002;4.394888674141839E-005;3.126755356788635E-003;
2.425500000000000E+009;1.658631712198257E-001;-9.965614974498749E-002;2.529961348045617E-004;3.169117029756308E-003;
2.425666666666667E+009;1.665794104337692E-001;-1.006973311305046E-001;4.738375428132713E-004;3.055792534723878E-003;
2.425833333333334E+009;1.671404838562012E-001;-1.017785519361496E-001;4.970796871930361E-004;2.995019080117345E-003;
2.426000000000000E+009;1.678167581558228E-001;-1.023348718881607E-001;7.427659002132714E-004;2.826184034347534E-003;
2.426166666666667E+009;1.686146557331085E-001;-1.030630171298981E-001;9.633615263737738E-004;2.878886880353093E-003;
2.426333333333334E+009;1.689429134130478E-001;-1.037752553820610E-001;9.850200731307268E-004;2.846298506483436E-003;
2.426500000000000E+009;1.696720421314240E-001;-1.042290702462196E-001;1.133045996539295E-003;2.702974947169423E-003;
2.426666666666667E+009;1.702506691217423E-001;-1.045970916748047E-001;1.260585500858724E-003;2.718818839639425E-003;
2.426833333333334E+009;1.708475798368454E-001;-1.049229502677918E-001;1.524951192550361E-003;2.767567755654454E-003;
2.427000000000000E+009;1.711877286434174E-001;-1.051582321524620E-001;1.448866212740541E-003;2.673848997801542E-003;
2.427166666666667E+009;1.716294139623642E-001;-1.053292825818062E-001;1.439086976461113E-003;2.477902220562100E-003;
2.427333333333334E+009;1.718647330999374E-001;-1.056281104683876E-001;1.666059135459364E-003;2.538142958655953E-003;
2.427500000000000E+009;1.719293892383575E-001;-1.057794243097305E-001;1.699733315035701E-003;2.433796646073461E-003;
2.427666666666667E+009;1.719419509172440E-001;-1.057225167751312E-001;1.918207155540586E-003;2.446461468935013E-003;
2.427833333333334E+009;1.718362718820572E-001;-1.057609394192696E-001;2.165264682844281E-003;2.287017181515694E-003;
