# Version 1.00
#
freq[Hz];re:Trc1_S11;im:Trc1_S11;re:Trc2_S21;im:Trc2_S21;
2.400000000000000E+009;1.584945172071457E-001;6.256650388240814E-002;-1.554510905407369E-003;9.462287562200800E-005;
2.400166666666667E+009;1.583279818296433E-001;6.095710024237633E-002;-1.604470424354076E-003;7.483953959308565E-005;
2.400333333333334E+009;1.580310612916946E-001;5.907560512423515E-002;-1.481796032749116E-003;2.445096033625305E-004;
2.400500000000000E+009;1.580603718757629E-001;5.707448720932007E-002;-1.267084386199713E-003;2.548740594647825E-004;
2.400666666666667E+009;1.578952521085739E-001;5.513633787631989E-002;-1.393001759424806E-003;2.724651421885938E-004;
2.400833333333334E+009;1.579408347606659E-001;5.331931635737419E-002;-1.397489104419947E-003;2.598209539428353E-004;
2.401000000000000E+009;1.579562127590179E-001;5.098356306552887E-002;-1.259672688320279E-003;3.098893503192812E-004;
2.401166666666667E+009;1.580896228551865E-001;4.900760948657990E-002;-1.236516050994396E-003;2.303646178916097E-004;
2.401333333333334E+009;1.582784205675125E-001;4.680997878313065E-002;-1.159394974820316E-003;2.765606332104653E-004;
2.401500000000000E+009;1.586534231901169E-001;4.490051046013832E-002;-9.687066776677966E-004;1.745127665344626E-004;
2.401666666666667E+009;1.589705646038055E-001;4.274649918079376E-002;-1.055066823028028E-003;2.208839287050068E-004;
2.401833333333334E+009;1.594158262014389E-001;4.059966281056404E-002;-9.129078825935721E-004;4.062478838022798E-004;
2.402000000000000E+009;1.595493406057358E-001;3.849891573190689E-002;-8.659847080707550E-004;1.279572024941444E-004;
2.402166666666667E+009;1.601228415966034E-001;3.664355352520943E-002;-7.286097970791161E-004;2.314927551196888E-004;
2.402333333333334E+009;1.608027070760727E-001;3.478576615452766E-002;-8.611451485194266E-004;4.754851397592574E-005;
2.402500000000000E+009;1.614081859588623E-001;3.308628872036934E-002;-6.158851319923997E-004;5.944470103713684E-005;
2.402666666666667E+009;1.621445715427399E-001;3.112388029694557E-002;-8.523934520781040E-004;5.126039832248353E-005;
2.402833333333334E+009;1.627277433872223E-001;2.939414605498314E-002;-6.253396277315915E-004;4.968541179550812E-005;
2.403000000000000E+009;1.634516268968582E-001;2.780527621507645E-002;-6.156523013487458E-004;-1.186011504614726E-004;
2.403166666666667E+009;1.644284874200821E-001;2.625603973865509E-002;-4.467943799681962E-004;-9.991820843424648E-005;
2.403333333333334E+009;1.652476042509079E-001;2.479037642478943E-002;-5.929694743826985E-004;-1.513814931968227E-004;
2.403500000000000E+009;1.661876887083054E-001;2.321900241076946E-002;-3.403149312362075E-004;-2.283215144416317E-004;
2.403666666666667E+009;1.672200411558151E-001;2.192517742514610E-002;-7.317952113226056E-004;-1.598027010913938E-004;
2.403833333333334E+009;1.680891513824463E-001;2.056452073156834E-002;-6.893451791256666E-004;-4.271303769201040E-004;
2.404000000000000E+009;1.689994931221008E-001;1.934886351227760E-002;-6.450942601077259E-004;-3.421685250941664E-004;
2.404166666666667E+009;1.700707525014877E-001;1.831327751278877E-002;-8.795193280093372E-004;-2.440545358695090E-004;
2.404333333333334E+009;1.710592508316040E-001;1.728991419076920E-002;-5.823560059070587E-004;-5.457730148918927E-004;
2.404500000000000E+009;1.717848628759384E-001;1.614707894623280E-002;-7.523194653913379E-004;-4.869298718404025E-004;
2.404666666666667E+009;1.728839874267578E-001;1.553170848637819E-002;-7.116873166523874E-004;-5.727058742195368E-004;
2.404833333333334E+009;1.738390326499939E-001;1.465487666428089E-002;-7.151962490752339E-004;-6.437982665374875E-004;
2.405000000000000E+009;1.746440678834915E-001;1.389959733933210E-002;-8.027159492485225E-004;-6.769005558453500E-004;
2.405166666666667E+009;1.755275279283524E-001;1.328493561595678E-002;-9.359192335978150E-004;-6.389080081135035E-004;
2.405333333333334E+009;1.764450073242188E-001;1.265205722302198E-002;-1.038955058902502E-003;-6.301245884969831E-004;
2.405500000000000E+009;1.771703958511353E-001;1.238262094557285E-002;-1.136341248638928E-003;-7.274008239619434E-004;
2.405666666666667E+009;1.777071356773377E-001;1.196969300508499E-002;-1.220494625158608E-003;-6.717072683386505E-004;
2.405833333333334E+009;1.783186793327332E-001;1.149283442646265E-002;-1.313304179348052E-003;-5.495253717526794E-004;
2.406000000000000E+009;1.789584159851074E-001;1.087102573364973E-002;-1.323846750892699E-003;-7.137921638786793E-004;
2.406166666666667E+009;1.793918013572693E-001;1.085241045802832E-002;-1.504483283497393E-003;-7.967978017404676E-004;
2.406333333333334E+009;1.798048019409180E-001;1.054945401847363E-002;-1.595034496858716E-003;-6.776716909371316E-004;
2.406500000000000E+009;1.802046447992325E-001;1.009918935596943E-002;-1.526798820123076E-003;-5.352921434678137E-004;
2.406666666666667E+009;1.802156269550324E-001;9.873196482658386E-003;-1.567986793816090E-003;-4.938006168231368E-004;
2.406833333333334E+009;1.805169284343720E-001;9.657098911702633E-003;-1.703113433904946E-003;-2.357181801926345E-004;
2.407000000000000E+009;1.806174367666245E-001;9.279412217438221E-003;-1.691062701866031E-003;-3.312830522190779E-004;
2.407166666666667E+009;1.808111667633057E-001;9.035990573465824E-003;-1.815256779082120E-003;-1.669963967287913E-004;
2.407333333333334E+009;1.805616170167923E-001;8.511511608958244E-003;-1.754156197421253E-003;6.202072108862922E-005;
2.407500000000000E+009;1.803937852382660E-001;8.216606453061104E-003;-1.796022988855839E-003;-7.908262887212914E-006;
2.407666666666667E+009;1.801906824111939E-001;7.904160767793655E-003;-1.808273955248296E-003;7.974991603987292E-005;
2.407833333333334E+009;1.797731667757034E-001;7.241763640195131E-003;-1.813181908801198E-003;1.232994254678488E-004;
2.408000000000000E+009;1.794478595256805E-001;6.766074337065220E-003;-1.789093250408769E-003;2.282089553773403E-004;
2.408166666666667E+009;1.789690107107163E-001;6.075349636375904E-003;-1.887266174890101E-003;2.227905206382275E-004;
2.408333333333334E+009;1.786837875843048E-001;5.440637469291687E-003;-1.893312670290470E-003;3.204073873348534E-004;
2.408500000000000E+009;1.781245172023773E-001;4.492429085075855E-003;-1.804079278372228E-003;3.876359842251986E-004;
2.408666666666667E+009;1.774988770484924E-001;3.665711963549256E-003;-1.804660074412823E-003;5.677092121914029E-004;
2.408833333333334E+009;1.768755018711090E-001;2.752877073362470E-003;-1.712789176963270E-003;5.850736051797867E-004;
2.409000000000000E+009;1.761997342109680E-001;1.840720884501934E-003;-1.844813465140760E-003;6.081477040424943E-004;
2.409166666666667E+009;1.755589991807938E-001;6.923861219547689E-004;-1.730037038214505E-003;5.974193336442113E-004;
2.409333333333334E+009;1.747853606939316E-001;-7.204732974059880E-004;-1.662288792431355E-003;6.013889214955270E-004;
2.409500000000000E+009;1.741171926259995E-001;-1.968930708244443E-003;-1.546096173115075E-003;7.320216391235590E-004;
2.409666666666667E+009;1.734001636505127E-001;-3.245542757213116E-003;-1.564204227179289E-003;6.733002373948693E-004;
2.409833333333334E+009;1.725382655858994E-001;-4.724307917058468E-003;-1.497931312769651E-003;6.907053757458925E-004;
2.410000000000000E+009;1.720953434705734E-001;-6.222396157681942E-003;-1.504607731476426E-003;6.752600893378258E-004;
2.410166666666667E+009;1.713015884160996E-001;-7.657543756067753E-003;-1.452058553695679E-003;7.458935142494738E-004;
2.410333333333334E+009;1.707402169704437E-001;-9.367729537189007E-003;-1.345179276540875E-003;7.694796076975763E-004;
2.410500000000000E+009;1.703268289566040E-001;-1.098852604627609E-002;-1.474388642236590E-003;6.466018385253847E-004;
2.410666666666667E+009;1.696532666683197E-001;-1.281497720628977E-002;-1.395126804709435E-003;7.063256343826652E-004;
2.410833333333334E+009;1.692785173654556E-001;-1.446630340069532E-002;-1.506136497482657E-003;8.405590779148042E-004;
2.411000000000000E+009;1.690043658018112E-001;-1.635638438165188E-002;-1.455429475754499E-003;9.719156078062952E-004;
2.411166666666667E+009;1.686240732669830E-001;-1.837140321731567E-002;-1.413740683346987E-003;7.076882757246494E-004;
2.411333333333334E+009;1.684065908193588E-001;-2.019079588353634E-002;-1.598581089638174E-003;7.084505632519722E-004;
2.411500000000000E+009;1.681414246559143E-001;-2.218031138181686E-002;-1.511537469923496E-003;8.069965406320989E-004;
2.411666666666667E+009;1.681414693593979E-001;-2.405890636146069E-002;-1.470210496336222E-003;8.871833560988307E-004;
2.411833333333334E+009;1.681420505046845E-001;-2.605930343270302E-002;-1.601082971319556E-003;9.026992483995855E-004;
2.412000000000000E+009;1.681197136640549E-001;-2.795028500258923E-002;-1.481772516854107E-003;9.300136589445174E-004;
2.412166666666667E+009;1.681562513113022E-001;-2.983751706779003E-002;-1.502942061051726E-003;9.799444815143943E-004;
2.412333333333334E+009;1.685837507247925E-001;-3.172876313328743E-002;-1.630371669307351E-003;1.195987570099533E-003;
2.412500000000000E+009;1.686171442270279E-001;-3.359985724091530E-002;-1.570894848555327E-003;9.563529165461659E-004;
2.412666666666667E+009;1.688970625400543E-001;-3.575308993458748E-002;-1.624520868062973E-003;1.242960570380092E-003;
2.412833333333334E+009;1.694027483463287E-001;-3.766816109418869E-002;-1.596263144165278E-003;1.252370653674007E-003;
2.413000000000000E+009;1.697063893079758E-001;-3.924788907170296E-002;-1.557797426357865E-003;1.407288829796016E-003;
2.413166666666667E+009;1.701545119285584E-001;-4.120368137955666E-002;-1.603020820766687E-003;1.413039164617658E-003;
2.413333333333334E+009;1.706063896417618E-001;-4.290300980210304E-002;-1.548104686662555E-003;1.506513566710055E-003;
2.413500000000000E+009;1.712234914302826E-001;-4.452915117144585E-002;-1.695112907327712E-003;1.518692472018302E-003;
2.413666666666667E+009;1.716933101415634E-001;-4.613176733255386E-002;-1.568143605254591E-003;1.739485422149301E-003;
2.413833333333334E+009;1.722650527954102E-001;-4.774014651775360E-002;-1.445092726498842E-003;1.846185186877847E-003;
2.414000000000000E+009;1.726415157318115E-001;-4.906864464282990E-002;-1.504565589129925E-003;1.867703278549016E-003;
2.414166666666667E+009;1.734272539615631E-001;-5.028976872563362E-002;-1.328908605501056E-003;1.834397553466260E-003;
2.414333333333334E+009;1.739057004451752E-001;-5.159223824739456E-002;-1.407001982443035E-003;2.042820677161217E-003;
2.414500000000000E+009;1.745960563421249E-001;-5.278172343969345E-002;-1.316055189818144E-003;2.096477895975113E-003;
2.414666666666667E+009;1.749747991561890E-001;-5.379111319780350E-002;-1.229993300512433E-003;2.151996595785022E-003;
2.414833333333334E+009;1.754736900329590E-001;-5.494458228349686E-002;-1.181612140499055E-003;2.391712740063667E-003;
2.415000000000000E+009;1.757836788892746E-001;-5.579318851232529E-002;-1.093589235097170E-003;2.346687484532595E-003;
2.415166666666667E+009;1.761961579322815E-001;-5.654517933726311E-002;-9.730341262184084E-004;2.313795499503613E-003;
2.415333333333334E+009;1.768141090869904E-001;-5.726709961891174E-002;-9.334072819910944E-004;2.419666387140751E-003;
2.415500000000000E+009;1.771060973405838E-001;-5.791957676410675E-002;-9.109046659432352E-004;2.485482254996896E-003;
2.415666666666667E+009;1.773306578397751E-001;-5.843678116798401E-002;-8.226709906011820E-004;2.583373570814729E-003;
2.415833333333334E+009;1.776419579982758E-001;-5.892907083034515E-002;-6.681664381176233E-004;2.554876031354070E-003;
2.416000000000000E+009;1.776120513677597E-001;-5.936532840132713E-002;-4.880453925579786E-004;2.649764064699411E-003;
2.416166666666667E+009;1.778727918863297E-001;-5.970547348260880E-002;-6.718912627547979E-004;2.776814391836524E-003;
2.416333333333334E+009;1.777902543544769E-001;-6.013426184654236E-002;-3.520837635733187E-004;2.691942499950528E-003;
2.416500000000000E+009;1.777641028165817E-001;-6.045077368617058E-002;-2.903343120124191E-004;2.727076876908541E-003;
2.416666666666667E+009;1.774769127368927E-001;-6.053638458251953E-002;-1.714418322080746E-004;2.962271217256784E-003;
2.416833333333334E+009;1.772693544626236E-001;-6.097302585840225E-002;-1.037159381667152E-004;2.817597938701510E-003;
2.417000000000000E+009;1.766753196716309E-001;-6.122401729226112E-002;9.875629621092230E-005;3.047753125429153E-003;
2.417166666666667E+009;1.763209551572800E-001;-6.127689033746719E-002;8.095879456959665E-005;2.828867873176932E-003;
2.417333333333334E+009;1.759130805730820E-001;-6.144359707832336E-002;3.094710700679570E-004;2.977592404931784E-003;
2.417500000000000E+009;1.750469505786896E-001;-6.186926364898682E-002;3.826249740086496E-004;2.947818953543901E-003;
2.417666666666667E+009;1.745966821908951E-001;-6.191902607679367E-002;5.982321454212070E-004;2.898630453273654E-003;
2.417833333333334E+009;1.737911850214005E-001;-6.226843595504761E-002;7.880328339524567E-004;2.918548416346312E-003;
2.418000000000000E+009;1.728729754686356E-001;-6.259838491678238E-002;7.085081306286156E-004;2.982421079650521E-003;
2.418166666666667E+009;1.719706356525421E-001;-6.287713348865509E-002;9.789492469280958E-004;2.914163051173091E-003;
2.418333333333334E+009;1.711959987878799E-001;-6.336858123540878E-002;1.091221463866532E-003;2.777266548946500E-003;
2.418500000000000E+009;1.699710488319397E-001;-6.355522572994232E-002;1.188057241961360E-003;2.847164636477828E-003;
2.418666666666667E+009;1.691077202558518E-001;-6.409652531147003E-002;1.296968315728009E-003;2.775520319119096E-003;
2.418833333333334E+009;1.678243428468704E-001;-6.476813554763794E-002;1.493524876423180E-003;2.764073200523853E-003;
2.419000000000000E+009;1.665742695331574E-001;-6.527338922023773E-002;1.663038041442633E-003;2.653745468705893E-003;
2.419166666666667E+009;1.653503775596619E-001;-6.594823300838471E-002;1.658851862885058E-003;2.560543827712536E-003;
2.419333333333334E+009;1.640324145555496E-001;-6.651271134614945E-002;1.754981349222362E-003;2.681535668671131E-003;
2.419500000000000E+009;1.629514396190643E-001;-6.751380860805512E-002;1.917606568895280E-003;2.474095206707716E-003;
2.419666666666667E+009;1.618974059820175E-001;-6.842919439077377E-002;1.961324596777558E-003;2.275483217090368E-003;
2.419833333333334E+009;1.605663448572159E-001;-6.927185505628586E-002;2.159833675250411E-003;2.298993989825249E-003;
2.420000000000000E+009;1.595359742641449E-001;-7.035213708877564E-002;2.165099373087287E-003;2.145152539014816E-003;
2.420166666666667E+009;1.581785678863525E-001;-7.137205451726914E-002;2.361029619351029E-003;2.002997323870659E-003;
2.420333333333334E+009;1.572773903608322E-001;-7.277560234069824E-002;2.387322485446930E-003;1.959960209205747E-003;
2.420500000000000E+009;1.561684310436249E-001;-7.385486364364624E-002;2.425322309136391E-003;1.740064704790711E-003;
2.420666666666667E+009;1.552222520112991E-001;-7.507888972759247E-002;2.223655348643661E-003;1.887333695776761E-003;
2.420833333333334E+009;1.543309390544891E-001;-7.648534327745438E-002;2.520268317312002E-003;1.553658396005631E-003;
2.421000000000000E+009;1.535088270902634E-001;-7.827215641736984E-002;2.624863293021917E-003;1.479678554460406E-003;
2.421166666666667E+009;1.525266170501709E-001;-7.956513762474060E-002;2.615586156025529E-003;1.246618456207216E-003;
2.421333333333334E+009;1.520310640335083E-001;-8.113954216241837E-002;2.712213434278965E-003;1.164585817605257E-003;
2.421500000000000E+009;1.514026224613190E-001;-8.271610736846924E-002;2.778675872832537E-003;9.180412162095308E-004;
2.421666666666667E+009;1.508301496505737E-001;-8.432932198047638E-002;2.659044694155455E-003;8.708382374607027E-004;
2.421833333333334E+009;1.502369940280914E-001;-8.603958040475845E-002;2.799737034365535E-003;6.852667429484427E-004;
2.422000000000000E+009;1.500352770090103E-001;-8.764149993658066E-002;2.548649208620191E-003;5.121678113937378E-004;
2.422166666666667E+009;1.495738327503204E-001;-8.954954147338867E-002;2.588275820016861E-003;5.665537319146097E-004;
2.422333333333334E+009;1.494673639535904E-001;-9.103244543075562E-002;2.670904155820608E-003;3.834949457086623E-004;
2.422500000000000E+009;1.493658870458603E-001;-9.268608689308167E-002;2.524584298953414E-003;3.616372996475548E-004;
2.422666666666667E+009;1.490988433361054E-001;-9.449328482151032E-002;2.576034748926759E-003;1.206639863085002E-004;
2.422833333333334E+009;1.492740660905838E-001;-9.619342535734177E-002;2.429552609100938E-003;1.018430411932059E-004;
2.423000000000000E+009;1.493916064500809E-001;-9.792484343051910E-002;2.443683799356222E-003;-1.361485046800226E-004;
2.423166666666667E+009;1.497358381748200E-001;-9.950016438961029E-002;2.479361370205879E-003;-5.343146403902210E-005;
2.423333333333334E+009;1.499837338924408E-001;-1.008151322603226E-001;2.206926234066486E-003;-2.372317394474521E-004;
2.423500000000000E+009;1.501956284046173E-001;-1.025439798831940E-001;2.322756219655275E-003;-2.747580001596361E-004;
2.423666666666667E+009;1.502531468868256E-001;-1.041730940341950E-001;2.134832087904215E-003;-5.019414238631725E-004;
2.423833333333334E+009;1.510184705257416E-001;-1.054790616035461E-001;2.106446074321866E-003;-2.993501257151365E-004;
2.424000000000000E+009;1.513359099626541E-001;-1.067824214696884E-001;1.954538747668266E-003;-5.290504195727408E-004;
2.424166666666667E+009;1.516970694065094E-001;-1.080591529607773E-001;2.014561323449016E-003;-5.802750820294023E-004;
2.424333333333334E+009;1.522107422351837E-001;-1.093692928552628E-001;1.717133331112564E-003;-6.018565036356449E-004;
2.424500000000000E+009;1.528145372867584E-001;-1.106142774224281E-001;1.789469271898270E-003;-5.713934078812599E-004;
2.424666666666667E+009;1.533900797367096E-001;-1.114230677485466E-001;1.786913257092238E-003;-6.776300724595785E-004;
2.424833333333334E+009;1.537330597639084E-001;-1.125681996345520E-001;1.672217855229974E-003;-6.172785069793463E-004;
2.425000000000000E+009;1.542795002460480E-001;-1.134833469986916E-001;1.522096572443843E-003;-7.021224591881037E-004;
2.425166666666667E+009;1.545483916997910E-001;-1.143837347626686E-001;1.553926034830511E-003;-5.925258155912161E-004;
2.425333333333334E+009;1.550153642892838E-001;-1.149955242872238E-001;1.515056937932968E-003;-5.320103955455124E-004;
2.425500000000000E+009;1.554504036903381E-001;-1.158516034483910E-001;1.490008784458041E-003;-7.121913949958980E-004;
2.425666666666667E+009;1.556342244148254E-001;-1.163674518465996E-001;1.477334066294134E-003;-6.082550389692187E-004;
2.425833333333334E+009;1.559156626462936E-001;-1.168758943676949E-001;1.458417507819831E-003;-6.124128121882677E-004;
2.426000000000000E+009;1.560931354761124E-001;-1.174129843711853E-001;1.422545057721436E-003;-5.843492690473795E-004;
2.426166666666667E+009;1.563923060894013E-001;-1.177182644605637E-001;1.472460455261171E-003;-6.525338976643980E-004;
2.426333333333334E+009;1.562795788049698E-001;-1.179720088839531E-001;1.439639134332538E-003;-4.811185353901237E-004;
2.426500000000000E+009;1.564209908246994E-001;-1.182832270860672E-001;1.311373198404908E-003;-5.032640765421093E-004;
2.426666666666667E+009;1.564279049634934E-001;-1.183493584394455E-001;1.292888191528618E-003;-6.406670436263084E-004;
2.426833333333334E+009;1.561529487371445E-001;-1.185675114393234E-001;1.485582324676216E-003;-7.533215102739632E-004;
2.427000000000000E+009;1.558876484632492E-001;-1.188317239284515E-001;1.305249170400202E-003;-5.190497031435370E-004;
2.427166666666667E+009;1.554226279258728E-001;-1.187446862459183E-001;1.302632736042142E-003;-5.783578963018954E-004;
2.427333333333334E+009;1.550670266151428E-001;-1.188674643635750E-001;1.389927230775356E-003;-6.146928644739091E-004;
2.427500000000000E+009;1.546506881713867E-001;-1.190698519349098E-001;1.379564870148897E-003;-6.421980797313154E-004;
2.427666666666667E+009;1.539099812507629E-001;-1.191289126873016E-001;1.355822663754225E-003;-6.415371899493039E-004;
