# Version 1.00
#
freq[Hz];re:Trc1_S11;im:Trc1_S11;re:Trc2_S21;im:Trc2_S21;
2.400000000000000E+009;1.584871411323547E-001;6.242461502552033E-002;-1.600867602974176E-003;4.066758265253156E-005;
2.400166666666667E+009;1.581477373838425E-001;6.082990020513535E-002;-1.567310420796275E-003;2.182555617764592E-004;
2.400333333333334E+009;1.581412851810455E-001;5.896046012639999E-002;-1.551583060063422E-003;1.186106746899895E-004;
2.400500000000000E+009;1.580174863338471E-001;5.712269246578217E-002;-1.324003795161843E-003;1.052347070071846E-004;
2.400666666666667E+009;1.578746438026428E-001;5.500759556889534E-002;-1.315838424488902E-003;2.444841084070504E-004;
2.400833333333334E+009;1.580967307090759E-001;5.316651239991188E-002;-1.326317433267832E-003;3.640048380475491E-004;
2.401000000000000E+009;1.579335629940033E-001;5.096450820565224E-002;-1.147845992818475E-003;1.080266811186448E-004;
2.401166666666667E+009;1.580589115619659E-001;4.889948666095734E-002;-1.049655023962259E-003;2.887330192606896E-004;
2.401333333333334E+009;1.584352850914002E-001;4.688533768057823E-002;-1.122669316828251E-003;2.214155829278752E-004;
2.401500000000000E+009;1.587569117546082E-001;4.484013468027115E-002;-1.025661360472441E-003;3.019641153514385E-004;
2.401666666666667E+009;1.589740216732025E-001;4.290741309523583E-002;-9.235097095370293E-004;1.998372608795762E-004;
2.401833333333334E+009;1.592994332313538E-001;4.074331745505333E-002;-8.977780234999955E-004;2.329054259462282E-004;
2.402000000000000E+009;1.595221757888794E-001;3.876985609531403E-002;-8.598920539952815E-004;2.044121356448159E-004;
2.402166666666667E+009;1.602270752191544E-001;3.666071221232414E-002;-7.821255130693317E-004;8.562289440305904E-005;
2.402333333333334E+009;1.606984138488770E-001;3.472207114100456E-002;-7.480263593606651E-004;1.719974097795785E-004;
2.402500000000000E+009;1.615977585315704E-001;3.281221166253090E-002;-6.164558581076562E-004;1.546112762298435E-004;
2.402666666666667E+009;1.620165407657623E-001;3.119309432804585E-002;-5.706654046662152E-004;-1.437051014363533E-005;
2.402833333333334E+009;1.628075540065765E-001;2.939305268228054E-002;-6.708693108521402E-004;-4.172214903519489E-005;
2.403000000000000E+009;1.635443866252899E-001;2.781031653285027E-002;-7.128994329832494E-004;-6.255701464397134E-006;
2.403166666666667E+009;1.644845902919769E-001;2.601652778685093E-002;-5.150600918568671E-004;-1.462961663492024E-004;
2.403333333333334E+009;1.654126346111298E-001;2.476891316473484E-002;-7.258118712343276E-004;-9.663189121056348E-005;
2.403500000000000E+009;1.661121249198914E-001;2.336950041353703E-002;-7.031552377156913E-004;-2.688264066819102E-004;
2.403666666666667E+009;1.670016348361969E-001;2.196196652948856E-002;-5.243687191978097E-004;-2.009992167586461E-004;
2.403833333333334E+009;1.681866049766541E-001;2.053592540323734E-002;-5.683928029611707E-004;-2.701698685996234E-004;
2.404000000000000E+009;1.689274609088898E-001;1.938935741782188E-002;-5.311202257871628E-004;-1.396362495142967E-004;
2.404166666666667E+009;1.701104789972305E-001;1.826410554349423E-002;-6.691617891192436E-004;-3.918951842933893E-004;
2.404333333333334E+009;1.709309071302414E-001;1.736926846206188E-002;-6.521116592921317E-004;-4.935486940667033E-004;
2.404500000000000E+009;1.719294041395187E-001;1.630784943699837E-002;-7.899037445895374E-004;-5.567831103689969E-004;
2.404666666666667E+009;1.729660928249359E-001;1.547585334628820E-002;-6.861977162770927E-004;-4.765269113704562E-004;
2.404833333333334E+009;1.737270504236221E-001;1.468979287892580E-002;-9.505230118520558E-004;-4.513971216510981E-004;
2.405000000000000E+009;1.748604625463486E-001;1.396984420716763E-002;-7.984869298525155E-004;-6.212149164639413E-004;
2.405166666666667E+009;1.755068451166153E-001;1.341868564486504E-002;-7.070301217027009E-004;-5.198968574404717E-004;
2.405333333333334E+009;1.764251738786697E-001;1.252841111272574E-002;-9.545389330014586E-004;-6.863623275421560E-004;
2.405500000000000E+009;1.770857274532318E-001;1.237639412283897E-002;-1.023571006953716E-003;-5.975613603368402E-004;
2.405666666666667E+009;1.778245568275452E-001;1.187583710998297E-002;-1.159112085588276E-003;-5.203189211897552E-004;
2.405833333333334E+009;1.783347278833389E-001;1.155736390501261E-002;-1.214704127050936E-003;-6.329851457849145E-004;
2.406000000000000E+009;1.789648383855820E-001;1.106474548578262E-002;-1.328379614278674E-003;-6.925147026777268E-004;
2.406166666666667E+009;1.793449223041534E-001;1.085066981613636E-002;-1.451847492717207E-003;-6.119825411587954E-004;
2.406333333333334E+009;1.798432767391205E-001;1.046932488679886E-002;-1.456162775866687E-003;-4.731449298560619E-004;
2.406500000000000E+009;1.801434755325317E-001;1.012687571346760E-002;-1.556647592224181E-003;-4.887844552285969E-004;
2.406666666666667E+009;1.802300512790680E-001;9.956549853086472E-003;-1.726942718960345E-003;-3.857522970065475E-004;
2.406833333333334E+009;1.805490851402283E-001;9.527038782835007E-003;-1.717629027552903E-003;-4.065060638822615E-004;
2.407000000000000E+009;1.807327121496201E-001;9.236179292201996E-003;-1.577840885147452E-003;-2.711411507334560E-004;
2.407166666666667E+009;1.808037906885147E-001;9.012621827423573E-003;-1.693171332590282E-003;-2.194594562752172E-004;
2.407333333333334E+009;1.807173341512680E-001;8.576639927923679E-003;-1.673757680691779E-003;-4.737335984827951E-005;
2.407500000000000E+009;1.804781854152679E-001;8.177541196346283E-003;-1.832860638387501E-003;-1.310345833189786E-004;
2.407666666666667E+009;1.803036779165268E-001;7.671312429010868E-003;-1.862613833509386E-003;7.218471000669524E-005;
2.407833333333334E+009;1.798366755247116E-001;7.173167541623116E-003;-1.880548777990043E-003;9.467938070883974E-005;
2.408000000000000E+009;1.795324236154556E-001;6.653083488345146E-003;-1.743062399327755E-003;1.673990627750754E-004;
2.408166666666667E+009;1.790384203195572E-001;6.108074914664030E-003;-1.875482732430100E-003;3.114624123554677E-004;
2.408333333333334E+009;1.788021475076675E-001;5.289923399686813E-003;-1.792614697478712E-003;5.180138396099210E-004;
2.408500000000000E+009;1.781812012195587E-001;4.469638224691153E-003;-1.821802579797804E-003;4.804943455383182E-004;
2.408666666666667E+009;1.775533109903336E-001;3.620662493631244E-003;-1.690843491815031E-003;5.109147750772536E-004;
2.408833333333334E+009;1.767343580722809E-001;2.707621548324823E-003;-1.666928641498089E-003;4.611318581737578E-004;
2.409000000000000E+009;1.760970056056976E-001;1.722369925118983E-003;-1.627212855964899E-003;6.103398045524955E-004;
2.409166666666667E+009;1.756201833486557E-001;5.879486561752856E-004;-1.594869419932365E-003;7.727333577349782E-004;
2.409333333333334E+009;1.749554425477982E-001;-6.840128917247057E-004;-1.695563434623182E-003;6.801480776630342E-004;
2.409500000000000E+009;1.741596460342407E-001;-2.029144437983632E-003;-1.737222308292985E-003;6.303333211690188E-004;
2.409666666666667E+009;1.734240055084229E-001;-3.291758475825191E-003;-1.566362217999995E-003;6.463209865614772E-004;
2.409833333333334E+009;1.727075874805450E-001;-4.475370515137911E-003;-1.506240107119083E-003;7.778608123771846E-004;
2.410000000000000E+009;1.722430139780045E-001;-6.100779399275780E-003;-1.536843134090304E-003;8.568207267671824E-004;
2.410166666666667E+009;1.713725924491882E-001;-7.631223183125258E-003;-1.478906837292016E-003;7.710671634413302E-004;
2.410333333333334E+009;1.708732545375824E-001;-9.237914346158505E-003;-1.466287299990654E-003;8.733117720112205E-004;
2.410500000000000E+009;1.703863590955734E-001;-1.094266306608915E-002;-1.442873268388212E-003;7.402324117720127E-004;
2.410666666666667E+009;1.697273850440979E-001;-1.282698195427656E-002;-1.529921777546406E-003;8.446930442005396E-004;
2.410833333333334E+009;1.693875342607498E-001;-1.446231827139854E-002;-1.548393862321973E-003;8.811234147287905E-004;
2.411000000000000E+009;1.689743250608444E-001;-1.635580509901047E-002;-1.578387338668108E-003;8.641268941573799E-004;
2.411166666666667E+009;1.686293780803680E-001;-1.841414719820023E-002;-1.448190072551370E-003;8.946472662501037E-004;
2.411333333333334E+009;1.683861464262009E-001;-2.026205323636532E-002;-1.590586150996387E-003;8.111628121696413E-004;
2.411500000000000E+009;1.681690067052841E-001;-2.222650311887264E-002;-1.467933761887252E-003;7.606558501720429E-004;
2.411666666666667E+009;1.681354343891144E-001;-2.407303452491760E-002;-1.469376031309366E-003;7.249963819049299E-004;
2.411833333333334E+009;1.680519580841065E-001;-2.594061195850372E-002;-1.573640969581902E-003;1.033658743835986E-003;
2.412000000000000E+009;1.682920157909393E-001;-2.806679531931877E-002;-1.513672526925802E-003;1.014456967823207E-003;
2.412166666666667E+009;1.682611256837845E-001;-3.004020452499390E-002;-1.462572021409869E-003;1.166761154308915E-003;
2.412333333333334E+009;1.684661954641342E-001;-3.196837753057480E-002;-1.530156005173922E-003;1.100329565815628E-003;
2.412500000000000E+009;1.686593443155289E-001;-3.368418291211128E-002;-1.641542767174542E-003;1.200058381073177E-003;
2.412666666666667E+009;1.688664853572846E-001;-3.579503670334816E-002;-1.710023963823915E-003;1.189365750178695E-003;
2.412833333333334E+009;1.694406718015671E-001;-3.762469440698624E-002;-1.502515631727874E-003;1.299202791415155E-003;
2.413000000000000E+009;1.697186529636383E-001;-3.944418579339981E-002;-1.547837164252996E-003;1.309762243181467E-003;
2.413166666666667E+009;1.701548844575882E-001;-4.109237715601921E-002;-1.711985678412020E-003;1.550790504552424E-003;
2.413333333333334E+009;1.705891638994217E-001;-4.289118200540543E-002;-1.609371858648956E-003;1.452839118428528E-003;
2.413500000000000E+009;1.711294203996658E-001;-4.456415772438049E-002;-1.642481423914433E-003;1.679001143202186E-003;
2.413666666666667E+009;1.717779040336609E-001;-4.625966399908066E-002;-1.634334796108306E-003;1.684985123574734E-003;
2.413833333333334E+009;1.724220067262650E-001;-4.769805073738098E-002;-1.357240602374077E-003;1.821395941078663E-003;
2.414000000000000E+009;1.726851463317871E-001;-4.903271794319153E-002;-1.517367665655911E-003;1.913000014610589E-003;
2.414166666666667E+009;1.733237802982330E-001;-5.038169771432877E-002;-1.430867007002235E-003;1.942779752425849E-003;
2.414333333333334E+009;1.738226711750031E-001;-5.174418911337853E-002;-1.400151057168841E-003;2.003811066970229E-003;
2.414500000000000E+009;1.746265292167664E-001;-5.281974002718926E-002;-1.306021702475846E-003;2.080386737361550E-003;
2.414666666666667E+009;1.749797016382217E-001;-5.386324599385262E-002;-1.371200778521597E-003;2.228540368378162E-003;
2.414833333333334E+009;1.754601001739502E-001;-5.493220686912537E-002;-1.156073762103915E-003;2.428582869470120E-003;
2.415000000000000E+009;1.759526431560516E-001;-5.577922239899635E-002;-1.071830280125141E-003;2.383250975981355E-003;
2.415166666666667E+009;1.763420701026917E-001;-5.650333315134049E-002;-1.066231052391231E-003;2.423760481178761E-003;
2.415333333333334E+009;1.767575293779373E-001;-5.737226083874703E-002;-9.550321265123785E-004;2.409975510090590E-003;
2.415500000000000E+009;1.771710962057114E-001;-5.785317718982697E-002;-8.526493329554796E-004;2.622882137075067E-003;
2.415666666666667E+009;1.773173958063126E-001;-5.839239060878754E-002;-7.345913909375668E-004;2.526921685785055E-003;
2.415833333333334E+009;1.775576621294022E-001;-5.903970822691917E-002;-6.004376336932182E-004;2.693460090085864E-003;
2.416000000000000E+009;1.776241362094879E-001;-5.942390859127045E-002;-6.052248063497245E-004;2.693268004804850E-003;
2.416166666666667E+009;1.778357028961182E-001;-5.981711298227310E-002;-6.211579311639071E-004;2.819585613906384E-003;
2.416333333333334E+009;1.778003126382828E-001;-6.008666381239891E-002;-4.092735762242228E-004;2.782467287033796E-003;
2.416500000000000E+009;1.777461022138596E-001;-6.038448214530945E-002;-2.715316368266940E-004;2.836325671523809E-003;
2.416666666666667E+009;1.774663329124451E-001;-6.058146432042122E-002;-6.582531932508573E-005;2.985327970236540E-003;
2.416833333333334E+009;1.773822903633118E-001;-6.089889630675316E-002;-1.725896872812882E-004;2.938803518190980E-003;
2.417000000000000E+009;1.767766475677490E-001;-6.124429404735565E-002;8.065391739364713E-005;2.944025443866849E-003;
2.417166666666667E+009;1.763812750577927E-001;-6.122164428234100E-002;1.937295019160956E-004;2.973079448565841E-003;
2.417333333333334E+009;1.759417951107025E-001;-6.149476766586304E-002;3.467934147920460E-004;3.008773084729910E-003;
2.417500000000000E+009;1.751851439476013E-001;-6.188040599226952E-002;5.259271711111069E-004;2.989469096064568E-003;
2.417666666666667E+009;1.747515797615051E-001;-6.193226948380470E-002;5.729586700908840E-004;2.915073651820421E-003;
2.417833333333334E+009;1.738304793834686E-001;-6.220215931534767E-002;6.236527697183192E-004;2.963004633784294E-003;
2.418000000000000E+009;1.728780120611191E-001;-6.269232928752899E-002;9.820905979722738E-004;2.879817271605134E-003;
2.418166666666667E+009;1.720005273818970E-001;-6.285350769758225E-002;1.038165297359228E-003;2.972912508994341E-003;
2.418333333333334E+009;1.712779402732849E-001;-6.324125081300736E-002;1.053893240168691E-003;2.865412272512913E-003;
2.418500000000000E+009;1.700256913900375E-001;-6.363334506750107E-002;1.134975114837289E-003;2.929690759629011E-003;
2.418666666666667E+009;1.690111458301544E-001;-6.416129320859909E-002;1.414264668710530E-003;2.683357568457723E-003;
2.418833333333334E+009;1.677304357290268E-001;-6.471250951290131E-002;1.374201849102974E-003;2.655717777088285E-003;
2.419000000000000E+009;1.665076017379761E-001;-6.528428196907044E-002;1.649529673159123E-003;2.729875268414617E-003;
2.419166666666667E+009;1.654982119798660E-001;-6.596410274505615E-002;1.578883850015700E-003;2.511584199965000E-003;
2.419333333333334E+009;1.640763878822327E-001;-6.641779839992523E-002;1.768627436831594E-003;2.583520254120231E-003;
2.419500000000000E+009;1.629880368709564E-001;-6.750131398439407E-002;2.056380501016974E-003;2.432318869978190E-003;
2.419666666666667E+009;1.619003266096115E-001;-6.844856590032578E-002;2.076779957860708E-003;2.250755904242396E-003;
2.419833333333334E+009;1.604883074760437E-001;-6.928078830242157E-002;2.099857898429036E-003;2.178959781304002E-003;
2.420000000000000E+009;1.596066355705261E-001;-7.034514844417572E-002;2.182896714657545E-003;2.081174869090319E-003;
2.420166666666667E+009;1.583404242992401E-001;-7.141440361738205E-002;2.319645835086703E-003;1.976737519726157E-003;
2.420333333333334E+009;1.573545932769775E-001;-7.275077700614929E-002;2.443973440676928E-003;1.880275434814394E-003;
2.420500000000000E+009;1.562117487192154E-001;-7.382143288850784E-002;2.425914397463203E-003;1.829011249355972E-003;
2.420666666666667E+009;1.551847904920578E-001;-7.512193173170090E-002;2.504096366465092E-003;1.615189132280648E-003;
2.420833333333334E+009;1.543603837490082E-001;-7.660497725009918E-002;2.518056891858578E-003;1.554553513415158E-003;
2.421000000000000E+009;1.533583849668503E-001;-7.802446931600571E-002;2.574734622612596E-003;1.365759526379407E-003;
2.421166666666667E+009;1.526318639516830E-001;-7.952885329723358E-002;2.627623965963721E-003;1.194468466565013E-003;
2.421333333333334E+009;1.519464552402496E-001;-8.119221031665802E-002;2.538946690037847E-003;1.124387374147773E-003;
2.421500000000000E+009;1.511942595243454E-001;-8.275703340768814E-002;2.667420776560903E-003;1.086921547539532E-003;
2.421666666666667E+009;1.508206129074097E-001;-8.439098298549652E-002;2.667521825060248E-003;9.854047093540430E-004;
2.421833333333334E+009;1.503863334655762E-001;-8.599308878183365E-002;2.783768111839891E-003;7.615778595209122E-004;
2.422000000000000E+009;1.499732136726379E-001;-8.761139959096909E-002;2.766935154795647E-003;6.319775711745024E-004;
2.422166666666667E+009;1.497476100921631E-001;-8.943524211645126E-002;2.651291200891137E-003;4.013731668237597E-004;
2.422333333333334E+009;1.495288163423538E-001;-9.100931137800217E-002;2.531823702156544E-003;4.478003829717636E-004;
2.422500000000000E+009;1.493886709213257E-001;-9.263616055250168E-002;2.669632202014327E-003;2.888513845391572E-004;
2.422666666666667E+009;1.492303460836411E-001;-9.442207962274551E-002;2.574119251221418E-003;1.846619124989957E-004;
2.422833333333334E+009;1.494573205709457E-001;-9.616961330175400E-002;2.452011452987790E-003;-3.230611764593050E-005;
2.423000000000000E+009;1.494414061307907E-001;-9.792605042457581E-002;2.265445888042450E-003;-6.607246905332431E-005;
2.423166666666667E+009;1.497104018926621E-001;-9.962533414363861E-002;2.285677008330822E-003;-1.417550956830382E-004;
2.423333333333334E+009;1.499515771865845E-001;-1.011280566453934E-001;2.244069240987301E-003;-3.202602965757251E-004;
2.423500000000000E+009;1.503067165613174E-001;-1.025499179959297E-001;2.246025949716568E-003;-2.514085499569774E-004;
2.423666666666667E+009;1.505334526300430E-001;-1.042269542813301E-001;2.093166112899780E-003;-3.496065328363329E-004;
2.423833333333334E+009;1.509759426116943E-001;-1.056941300630570E-001;2.111184643581510E-003;-2.850496384780854E-004;
2.424000000000000E+009;1.512606441974640E-001;-1.069095358252525E-001;1.975346822291613E-003;-6.216916372068226E-004;
2.424166666666667E+009;1.515881717205048E-001;-1.082236170768738E-001;1.855001319199801E-003;-6.358569371514022E-004;
2.424333333333334E+009;1.522377580404282E-001;-1.093776673078537E-001;1.819203025661409E-003;-5.137413972988725E-004;
2.424500000000000E+009;1.526931822299957E-001;-1.105222404003143E-001;1.729503739625216E-003;-5.439533269964159E-004;
2.424666666666667E+009;1.532989889383316E-001;-1.113537177443504E-001;1.799241057597101E-003;-5.732059362344444E-004;
2.424833333333334E+009;1.536653339862824E-001;-1.124322339892387E-001;1.589646679349244E-003;-6.252567400224507E-004;
2.425000000000000E+009;1.541845202445984E-001;-1.135103628039360E-001;1.699456130154431E-003;-5.357529153116047E-004;
2.425166666666667E+009;1.544715464115143E-001;-1.143338829278946E-001;1.551281893625855E-003;-6.031995872035623E-004;
2.425333333333334E+009;1.549023091793060E-001;-1.149659529328346E-001;1.458813203498721E-003;-5.585036124102771E-004;
2.425500000000000E+009;1.554518491029739E-001;-1.157986894249916E-001;1.390936668030918E-003;-6.204470410011709E-004;
2.425666666666667E+009;1.555909514427185E-001;-1.162023171782494E-001;1.487043336965144E-003;-7.194773061200976E-004;
2.425833333333334E+009;1.558679789304733E-001;-1.168079972267151E-001;1.378440647386015E-003;-5.498147802427411E-004;
2.426000000000000E+009;1.560785770416260E-001;-1.174148172140122E-001;1.317251240834594E-003;-6.281782407313585E-004;
2.426166666666667E+009;1.564793884754181E-001;-1.177485808730125E-001;1.317161601036787E-003;-5.029808380641043E-004;
2.426333333333334E+009;1.564226746559143E-001;-1.180154755711556E-001;1.299276016652584E-003;-5.874013295397162E-004;
2.426500000000000E+009;1.565362811088562E-001;-1.182119548320770E-001;1.404392533004284E-003;-7.018154719844461E-004;
2.426666666666667E+009;1.565231084823608E-001;-1.182671487331390E-001;1.306448713876307E-003;-5.960166454315186E-004;
2.426833333333334E+009;1.562688350677490E-001;-1.186859011650085E-001;1.426578382961452E-003;-4.498288908507675E-004;
2.427000000000000E+009;1.558564901351929E-001;-1.188574135303497E-001;1.372120575979352E-003;-5.662079784087837E-004;
2.427166666666667E+009;1.555645614862442E-001;-1.186917945742607E-001;1.264503691345453E-003;-6.345112924464047E-004;
2.427333333333334E+009;1.550226509571075E-001;-1.188607811927795E-001;1.391828525811434E-003;-4.661487764678896E-004;
2.427500000000000E+009;1.546892225742340E-001;-1.190056800842285E-001;1.453829929232597E-003;-6.628711707890034E-004;
2.427666666666667E+009;1.538639515638351E-001;-1.190560981631279E-001;1.377341453917325E-003;-6.771637708880007E-004;
