# Version 1.00
#
freq[Hz];re:Trc1_S11;im:Trc1_S11;re:Trc2_S21;im:Trc2_S21;
2.400000000000000E+009;1.584247946739197E-001;6.262880563735962E-002;-1.628677127882838E-003;-3.107637166976929E-005;
2.400166666666667E+009;1.582127511501312E-001;6.112210452556610E-002;-1.581796212121844E-003;1.812289847293869E-004;
2.400333333333334E+009;1.579339355230331E-001;5.913193151354790E-002;-1.462825806811452E-003;3.838037373498082E-004;
2.400500000000000E+009;1.580435484647751E-001;5.711938440799713E-002;-1.527728047221899E-003;3.641045768745244E-004;
2.400666666666667E+009;1.580364704132080E-001;5.503734946250916E-002;-1.414791913703084E-003;2.538200933486223E-004;
2.400833333333334E+009;1.581355929374695E-001;5.325877666473389E-002;-1.162374042905867E-003;2.720418851822615E-004;
2.401000000000000E+009;1.582090407609940E-001;5.114791542291641E-002;-1.206708955578506E-003;1.697078405413777E-004;
2.401166666666667E+009;1.581881940364838E-001;4.896545782685280E-002;-1.052282401360571E-003;3.176584141328931E-004;
2.401333333333334E+009;1.583686918020248E-001;4.678387194871903E-002;-1.082292641513050E-003;3.094988060183823E-004;
2.401500000000000E+009;1.586570888757706E-001;4.488186910748482E-002;-9.131683618761599E-004;2.581831067800522E-004;
2.401666666666667E+009;1.589469015598297E-001;4.295266792178154E-002;-9.561716578900814E-004;2.096749813063070E-004;
2.401833333333334E+009;1.593281030654907E-001;4.068770632147789E-002;-9.388359612785280E-004;1.572565670358017E-004;
2.402000000000000E+009;1.597386300563812E-001;3.872687369585037E-002;-9.587810491211712E-004;2.365030522923917E-004;
2.402166666666667E+009;1.602154374122620E-001;3.674784302711487E-002;-6.680440856143832E-004;6.960940663702786E-005;
2.402333333333334E+009;1.607777625322342E-001;3.480487316846848E-002;-7.400081958621740E-004;1.392326084896922E-004;
2.402500000000000E+009;1.616588383913040E-001;3.295396640896797E-002;-7.394890999421477E-004;7.115041080396622E-005;
2.402666666666667E+009;1.620107442140579E-001;3.120807930827141E-002;-5.402205279096961E-004;3.516618016874418E-005;
2.402833333333334E+009;1.627800315618515E-001;2.949975244700909E-002;-6.390581256709993E-004;1.629327783803092E-007;
2.403000000000000E+009;1.637023985385895E-001;2.782458066940308E-002;-6.238802452571690E-004;5.885768041480333E-005;
2.403166666666667E+009;1.644604355096817E-001;2.638219669461250E-002;-5.936259403824806E-004;-6.198477785801515E-005;
2.403333333333334E+009;1.654378920793533E-001;2.470569312572479E-002;-5.155876860953867E-004;-2.097081414831337E-005;
2.403500000000000E+009;1.661522835493088E-001;2.324361726641655E-002;-6.294318009167910E-004;-1.898855407489464E-004;
2.403666666666667E+009;1.672804206609726E-001;2.198701351881027E-002;-6.180940545164049E-004;-3.539314493536949E-004;
2.403833333333334E+009;1.683242172002792E-001;2.064090967178345E-002;-6.234862958081067E-004;-3.541335172485560E-004;
2.404000000000000E+009;1.692815423011780E-001;1.940104551613331E-002;-6.143412319943309E-004;-4.002320929430425E-004;
2.404166666666667E+009;1.701761782169342E-001;1.831540092825890E-002;-6.288809818215668E-004;-3.673375758808106E-004;
2.404333333333334E+009;1.711414307355881E-001;1.730584166944027E-002;-6.200171192176640E-004;-2.214100823039189E-004;
2.404500000000000E+009;1.720151305198669E-001;1.634720899164677E-002;-7.338426657952368E-004;-4.819779132958502E-004;
2.404666666666667E+009;1.730046868324280E-001;1.551437657326460E-002;-7.417877204716206E-004;-5.355757893994451E-004;
2.404833333333334E+009;1.737709343433380E-001;1.464803144335747E-002;-8.302917121909559E-004;-6.199958152137697E-004;
2.405000000000000E+009;1.746340543031693E-001;1.388037949800491E-002;-8.921303087845445E-004;-6.010812357999384E-004;
2.405166666666667E+009;1.755814105272293E-001;1.330843288451433E-002;-8.796156616881490E-004;-7.230444462038577E-004;
2.405333333333334E+009;1.765443086624146E-001;1.265028305351734E-002;-1.001659082248807E-003;-7.392792031168938E-004;
2.405500000000000E+009;1.772519648075104E-001;1.230463664978743E-002;-1.039155409671366E-003;-6.359884282574058E-004;
2.405666666666667E+009;1.778602451086044E-001;1.182570308446884E-002;-1.141199958510697E-003;-6.655043689534068E-004;
2.405833333333334E+009;1.783358901739121E-001;1.144017092883587E-002;-1.209131442010403E-003;-4.320722655393183E-004;
2.406000000000000E+009;1.791800409555435E-001;1.115262415260077E-002;-1.416444662027061E-003;-6.042340537533164E-004;
2.406166666666667E+009;1.793067157268524E-001;1.080923061817884E-002;-1.321811927482486E-003;-5.427622236311436E-004;
2.406333333333334E+009;1.800966113805771E-001;1.053628604859114E-002;-1.520712045021355E-003;-4.673015500884503E-004;
2.406500000000000E+009;1.802162975072861E-001;1.018676441162825E-002;-1.538915559649468E-003;-3.691752499435097E-004;
2.406666666666667E+009;1.803024113178253E-001;9.953357279300690E-003;-1.600022194907069E-003;-4.507963312789798E-004;
2.406833333333334E+009;1.805552840232849E-001;9.538138285279274E-003;-1.797079807147384E-003;-4.429528198670596E-004;
2.407000000000000E+009;1.806621998548508E-001;9.290706366300583E-003;-1.734213088639081E-003;-2.565806207712740E-004;
2.407166666666667E+009;1.808705180883408E-001;9.006970562040806E-003;-1.815043040551245E-003;-2.138725685654208E-004;
2.407333333333334E+009;1.806632280349731E-001;8.472283370792866E-003;-1.836428651586175E-003;-1.897474139695987E-004;
2.407500000000000E+009;1.805079728364945E-001;8.233679458498955E-003;-1.992034958675504E-003;-3.938142253900878E-005;
2.407666666666667E+009;1.804317981004715E-001;7.721308618783951E-003;-1.709725824184716E-003;-2.591214615677018E-005;
2.407833333333334E+009;1.798424720764160E-001;7.053424138575792E-003;-1.704840688034892E-003;5.463860361487605E-005;
2.408000000000000E+009;1.795816421508789E-001;6.525040604174137E-003;-1.862867968156934E-003;2.411733294138685E-004;
2.408166666666667E+009;1.790883988142014E-001;6.061972584575415E-003;-1.745338551700115E-003;2.124945895047858E-004;
2.408333333333334E+009;1.787583082914352E-001;5.203089676797390E-003;-1.885925419628620E-003;3.424425667617470E-004;
2.408500000000000E+009;1.782118976116180E-001;4.468985367566347E-003;-1.691436395049095E-003;4.385469073895365E-004;
2.408666666666667E+009;1.776266992092133E-001;3.455228405073285E-003;-1.796633237972856E-003;4.988182336091995E-004;
2.408833333333334E+009;1.767633408308029E-001;2.671988913789392E-003;-1.672950922511518E-003;5.008754087612033E-004;
2.409000000000000E+009;1.761624515056610E-001;1.767788082361221E-003;-1.690446166321635E-003;6.426185136660934E-004;
2.409166666666667E+009;1.756790578365326E-001;5.720697226934135E-004;-1.641246955841780E-003;5.641521420329809E-004;
2.409333333333334E+009;1.749579310417175E-001;-7.260392303578556E-004;-1.594247180037201E-003;8.139856508933008E-004;
2.409500000000000E+009;1.741678416728973E-001;-2.039025770500302E-003;-1.787662156857550E-003;6.606205715797842E-004;
2.409666666666667E+009;1.732647716999054E-001;-3.330062143504620E-003;-1.581871183589101E-003;6.237607449293137E-004;
2.409833333333334E+009;1.727719902992249E-001;-4.673570860177279E-003;-1.482299179770052E-003;5.935862427577376E-004;
2.410000000000000E+009;1.721359938383102E-001;-6.181111093610525E-003;-1.533706439658999E-003;6.286858115345240E-004;
2.410166666666667E+009;1.715440899133682E-001;-7.622283417731524E-003;-1.646086573600769E-003;8.384477114304900E-004;
2.410333333333334E+009;1.709364056587219E-001;-9.250391274690628E-003;-1.612809603102505E-003;7.885658415034413E-004;
2.410500000000000E+009;1.703109741210938E-001;-1.107546500861645E-002;-1.534051494672895E-003;6.768460152670741E-004;
2.410666666666667E+009;1.697305589914322E-001;-1.282781176269054E-002;-1.453460194170475E-003;7.814337150193751E-004;
2.410833333333334E+009;1.694155931472778E-001;-1.464274618774653E-002;-1.476249424740672E-003;8.101527346298099E-004;
2.411000000000000E+009;1.689583212137222E-001;-1.637081243097782E-002;-1.467013731598854E-003;6.566548836417496E-004;
2.411166666666667E+009;1.687588095664978E-001;-1.834569498896599E-002;-1.581266755238175E-003;8.073034114204347E-004;
2.411333333333334E+009;1.684473901987076E-001;-2.014807239174843E-002;-1.513322349637747E-003;8.110803319141269E-004;
2.411500000000000E+009;1.683383882045746E-001;-2.235876768827438E-002;-1.578231342136860E-003;9.246820118278265E-004;
2.411666666666667E+009;1.681801229715347E-001;-2.409432455897331E-002;-1.489524380303919E-003;8.653535624034703E-004;
2.411833333333334E+009;1.681042313575745E-001;-2.601254731416702E-002;-1.467218040488660E-003;9.813946671783924E-004;
2.412000000000000E+009;1.681531816720963E-001;-2.811227366328239E-002;-1.522716134786606E-003;1.091627054847777E-003;
2.412166666666667E+009;1.681611835956574E-001;-3.006465919315815E-002;-1.637502689845860E-003;8.529250044375658E-004;
2.412333333333334E+009;1.685759872198105E-001;-3.198840096592903E-002;-1.662340830080211E-003;9.854210074990988E-004;
2.412500000000000E+009;1.685875356197357E-001;-3.387870267033577E-002;-1.608172897249460E-003;1.161213847808540E-003;
2.412666666666667E+009;1.689307242631912E-001;-3.577356413006783E-002;-1.713947975076735E-003;1.152417506091297E-003;
2.412833333333334E+009;1.694178432226181E-001;-3.767166286706924E-002;-1.709619769826531E-003;1.280135475099087E-003;
2.413000000000000E+009;1.697973906993866E-001;-3.942036256194115E-002;-1.688254531472921E-003;1.375430379994214E-003;
2.413166666666667E+009;1.703108847141266E-001;-4.127907007932663E-002;-1.568862004205585E-003;1.376671832986176E-003;
2.413333333333334E+009;1.704662591218948E-001;-4.289017990231514E-002;-1.522602280601859E-003;1.528193242847920E-003;
2.413500000000000E+009;1.711903065443039E-001;-4.463759064674377E-002;-1.586154685355723E-003;1.439487328752875E-003;
2.413666666666667E+009;1.716452836990356E-001;-4.628305509686470E-002;-1.524921390227974E-003;1.727682189084590E-003;
2.413833333333334E+009;1.722264885902405E-001;-4.761800915002823E-002;-1.516621909104288E-003;1.890051760710776E-003;
2.414000000000000E+009;1.726662963628769E-001;-4.916206374764442E-002;-1.368100172840059E-003;1.887076301500201E-003;
2.414166666666667E+009;1.732835024595261E-001;-5.044348910450935E-002;-1.488789683207870E-003;1.973141450434923E-003;
2.414333333333334E+009;1.739254593849182E-001;-5.183265730738640E-002;-1.595750101841986E-003;1.987181371077895E-003;
2.414500000000000E+009;1.746373325586319E-001;-5.284789577126503E-002;-1.437247032299638E-003;2.126009436324239E-003;
2.414666666666667E+009;1.748903542757034E-001;-5.397467687726021E-002;-1.458049402572215E-003;2.088209846988320E-003;
2.414833333333334E+009;1.753105074167252E-001;-5.495461076498032E-002;-1.189040485769510E-003;2.253096085041761E-003;
2.415000000000000E+009;1.759146600961685E-001;-5.583301186561585E-002;-1.207869150675833E-003;2.362787723541260E-003;
2.415166666666667E+009;1.762997806072235E-001;-5.663019418716431E-002;-1.160401734523475E-003;2.310784533619881E-003;
2.415333333333334E+009;1.768253892660141E-001;-5.750531703233719E-002;-1.074312836863101E-003;2.358081517741084E-003;
2.415500000000000E+009;1.771107614040375E-001;-5.788258835673332E-002;-7.952278247103095E-004;2.652807626873255E-003;
2.415666666666667E+009;1.772429198026657E-001;-5.843620374798775E-002;-8.662097388878465E-004;2.643210580572486E-003;
2.415833333333334E+009;1.776661574840546E-001;-5.912644043564796E-002;-6.914581172168255E-004;2.615720732137561E-003;
2.416000000000000E+009;1.776499599218369E-001;-5.951811000704765E-002;-6.518787122331560E-004;2.773989457637072E-003;
2.416166666666667E+009;1.778518557548523E-001;-5.980245023965836E-002;-5.286093801259995E-004;2.818081062287092E-003;
2.416333333333334E+009;1.777688115835190E-001;-6.011384725570679E-002;-4.561195091810077E-004;2.839580411091447E-003;
2.416500000000000E+009;1.776873171329498E-001;-6.046244129538536E-002;-2.667300286702812E-004;2.900833496823907E-003;
2.416666666666667E+009;1.774046570062637E-001;-6.070996820926666E-002;-2.025517460424453E-004;2.834201557561755E-003;
2.416833333333334E+009;1.773181557655335E-001;-6.091723963618279E-002;-8.876297215465456E-005;2.903894521296024E-003;
2.417000000000000E+009;1.768142133951187E-001;-6.127026304602623E-002;6.267395656323060E-005;2.897200640290976E-003;
2.417166666666667E+009;1.763727515935898E-001;-6.125337257981300E-002;2.904683351516724E-004;2.989449538290501E-003;
2.417333333333334E+009;1.758916079998016E-001;-6.151022389531136E-002;2.802858361974359E-004;3.137562889605761E-003;
2.417500000000000E+009;1.752657741308212E-001;-6.199966371059418E-002;5.403812974691391E-004;2.975091338157654E-003;
2.417666666666667E+009;1.745843887329102E-001;-6.197960302233696E-002;4.288820200599730E-004;2.924275118857622E-003;
2.417833333333334E+009;1.738166064023972E-001;-6.224147975444794E-002;6.976478034630418E-004;3.055597189813852E-003;
2.418000000000000E+009;1.728642284870148E-001;-6.265103816986084E-002;8.422867394983769E-004;3.025330137461424E-003;
2.418166666666667E+009;1.719335615634918E-001;-6.273559480905533E-002;8.807869162410498E-004;2.909242408350110E-003;
2.418333333333334E+009;1.711651235818863E-001;-6.331373006105423E-002;1.045410521328449E-003;2.917851787060499E-003;
2.418500000000000E+009;1.699763089418411E-001;-6.375846266746521E-002;1.211464405059815E-003;2.859108848497272E-003;
2.418666666666667E+009;1.689853072166443E-001;-6.421242654323578E-002;1.273129833862186E-003;2.771211089566350E-003;
2.418833333333334E+009;1.675969511270523E-001;-6.475646793842316E-002;1.382024958729744E-003;2.727099927142263E-003;
2.419000000000000E+009;1.665096133947372E-001;-6.518545001745224E-002;1.467786147259176E-003;2.629868919029832E-003;
2.419166666666667E+009;1.654751896858215E-001;-6.601171195507050E-002;1.459422870539129E-003;2.663290593773127E-003;
2.419333333333334E+009;1.641128957271576E-001;-6.655950844287872E-002;1.805051346309483E-003;2.521553542464972E-003;
2.419500000000000E+009;1.629016101360321E-001;-6.752368062734604E-002;1.906648161821067E-003;2.382905222475529E-003;
2.419666666666667E+009;1.617562472820282E-001;-6.854893267154694E-002;1.948031247593463E-003;2.330477582290769E-003;
2.419833333333334E+009;1.605017036199570E-001;-6.916654109954834E-002;2.133277012035251E-003;2.191460225731134E-003;
2.420000000000000E+009;1.596422940492630E-001;-7.031022012233734E-002;2.195395529270172E-003;2.119732089340687E-003;
2.420166666666667E+009;1.583811789751053E-001;-7.153508067131043E-002;2.319125225767493E-003;1.992476172745228E-003;
2.420333333333334E+009;1.572720110416412E-001;-7.270399481058121E-002;2.346182242035866E-003;1.987556461244822E-003;
2.420500000000000E+009;1.561552435159683E-001;-7.369451969861984E-002;2.466137520968914E-003;1.811743248254061E-003;
2.420666666666667E+009;1.551794111728668E-001;-7.510749995708466E-002;2.467637648805976E-003;1.708225812762976E-003;
2.420833333333334E+009;1.542929410934448E-001;-7.657451182603836E-002;2.491040853783488E-003;1.539099379442632E-003;
2.421000000000000E+009;1.534610986709595E-001;-7.801578193902969E-002;2.513064770027995E-003;1.569084473885596E-003;
2.421166666666667E+009;1.526842117309570E-001;-7.957442104816437E-002;2.565879141911864E-003;1.404419308528304E-003;
2.421333333333334E+009;1.520818173885346E-001;-8.117797225713730E-002;2.596247475594282E-003;1.300437375903130E-003;
2.421500000000000E+009;1.512968540191650E-001;-8.267100155353546E-002;2.633862197399139E-003;9.532395633868873E-004;
2.421666666666667E+009;1.507552862167358E-001;-8.424998819828033E-002;2.719918731600046E-003;1.030787127092481E-003;
2.421833333333334E+009;1.503907591104507E-001;-8.588290214538574E-002;2.664572093635798E-003;7.992621394805610E-004;
2.422000000000000E+009;1.499272286891937E-001;-8.763576298952103E-002;2.696041716262698E-003;6.170890410430729E-004;
2.422166666666667E+009;1.497093439102173E-001;-8.965501934289932E-002;2.593355486169457E-003;5.126415053382516E-004;
2.422333333333334E+009;1.494695544242859E-001;-9.108411520719528E-002;2.693314803764224E-003;5.686772055923939E-004;
2.422500000000000E+009;1.492354273796082E-001;-9.269274771213532E-002;2.707030624151230E-003;2.987223560921848E-004;
2.422666666666667E+009;1.491610258817673E-001;-9.454103559255600E-002;2.460815245285630E-003;2.262328489450738E-004;
2.422833333333334E+009;1.493401378393173E-001;-9.636364877223969E-002;2.450042171403766E-003;1.937609049491584E-004;
2.423000000000000E+009;1.492346972227097E-001;-9.771060943603516E-002;2.466418547555804E-003;-2.127188236045186E-005;
2.423166666666667E+009;1.495593339204788E-001;-9.950944781303406E-002;2.327346010133624E-003;-8.783741213846952E-005;
2.423333333333334E+009;1.499328762292862E-001;-1.010382026433945E-001;2.242006827145815E-003;-1.529811997897923E-004;
2.423500000000000E+009;1.501467674970627E-001;-1.026966720819473E-001;2.176896668970585E-003;-2.728285326156765E-004;
2.423666666666667E+009;1.504383385181427E-001;-1.042179018259049E-001;2.312695840373635E-003;-4.580454551614821E-004;
2.423833333333334E+009;1.509382128715515E-001;-1.057014092803001E-001;2.185882534831762E-003;-3.960876492783427E-004;
2.424000000000000E+009;1.513137817382813E-001;-1.067724227905273E-001;1.871928921900690E-003;-5.290095577947795E-004;
2.424166666666667E+009;1.515972465276718E-001;-1.082083210349083E-001;1.840043114498258E-003;-4.279361455701292E-004;
2.424333333333334E+009;1.522523462772369E-001;-1.094091981649399E-001;1.924797310493887E-003;-4.719847638625652E-004;
2.424500000000000E+009;1.527313888072968E-001;-1.104387715458870E-001;1.723054563626647E-003;-5.276032024994493E-004;
2.424666666666667E+009;1.533367633819580E-001;-1.113989129662514E-001;1.782545237801969E-003;-6.745412247255445E-004;
2.424833333333334E+009;1.536339521408081E-001;-1.124163269996643E-001;1.701866043731570E-003;-5.475079524330795E-004;
2.425000000000000E+009;1.542434543371201E-001;-1.133946254849434E-001;1.713727135211229E-003;-6.278646760620177E-004;
2.425166666666667E+009;1.545038819313049E-001;-1.143121570348740E-001;1.496961573138833E-003;-8.358773193322122E-004;
2.425333333333334E+009;1.550379544496536E-001;-1.150377988815308E-001;1.509957481175661E-003;-5.301827332004905E-004;
2.425500000000000E+009;1.554948240518570E-001;-1.156447157263756E-001;1.496019656769931E-003;-6.792503409087658E-004;
2.425666666666667E+009;1.555789709091187E-001;-1.162227615714073E-001;1.457384089007974E-003;-5.031776963733137E-004;
2.425833333333334E+009;1.559512317180634E-001;-1.167303323745728E-001;1.458434271626174E-003;-4.408244567457587E-004;
2.426000000000000E+009;1.559599041938782E-001;-1.173557192087174E-001;1.416930463165045E-003;-5.672239349223673E-004;
2.426166666666667E+009;1.563711613416672E-001;-1.176530346274376E-001;1.479440834373236E-003;-5.470102769322693E-004;
2.426333333333334E+009;1.563719511032105E-001;-1.180700510740280E-001;1.310933730565012E-003;-5.769329145550728E-004;
2.426500000000000E+009;1.563713550567627E-001;-1.182309612631798E-001;1.241903053596616E-003;-4.870912816841155E-004;
2.426666666666667E+009;1.565341204404831E-001;-1.184614598751068E-001;1.474360586144030E-003;-7.376453140750527E-004;
2.426833333333334E+009;1.562621891498566E-001;-1.185395866632462E-001;1.487747766077519E-003;-5.614364054054022E-004;
2.427000000000000E+009;1.559646129608154E-001;-1.187768653035164E-001;1.373818144202232E-003;-6.421168800443411E-004;
2.427166666666667E+009;1.555783897638321E-001;-1.187607496976852E-001;1.268271007575095E-003;-5.292821442708373E-004;
2.427333333333334E+009;1.550325602293015E-001;-1.188985705375671E-001;1.389291137456894E-003;-6.696227937936783E-004;
2.427500000000000E+009;1.546400040388107E-001;-1.190457344055176E-001;1.450063660740852E-003;-5.477005615830421E-004;
2.427666666666667E+009;1.539018154144287E-001;-1.192121952772141E-001;1.311460859142244E-003;-6.970227113924921E-004;
