# Version 1.00
#
freq[Hz];re:Trc1_S11;im:Trc1_S11;re:Trc2_S21;im:Trc2_S21;
2.400000000000000E+009;1.583971530199051E-001;6.261084973812103E-002;-1.547837280668318E-003;1.616131194168702E-004;
2.400166666666667E+009;1.580862998962402E-001;6.106429547071457E-002;-1.491397735662758E-003;1.448827388230711E-004;
2.400333333333334E+009;1.579974591732025E-001;5.907532200217247E-002;-1.512142131105065E-003;2.053276257356629E-004;
2.400500000000000E+009;1.579790115356445E-001;5.720834061503410E-002;-1.411789911799133E-003;1.783652842277661E-004;
2.400666666666667E+009;1.579374223947525E-001;5.507254973053932E-002;-1.172430231235921E-003;2.334901946596801E-004;
2.400833333333334E+009;1.580608934164047E-001;5.335724726319313E-002;-1.281942590139806E-003;3.570297849364579E-004;
2.401000000000000E+009;1.580613851547241E-001;5.105506628751755E-002;-1.152393757365644E-003;1.572946348460391E-004;
2.401166666666667E+009;1.582283228635788E-001;4.909625649452210E-002;-1.096885069273412E-003;3.389045887161046E-004;
2.401333333333334E+009;1.582865864038467E-001;4.696766659617424E-002;-1.012830180115998E-003;2.522079739719629E-004;
2.401500000000000E+009;1.588300913572311E-001;4.481639713048935E-002;-1.122652203775942E-003;3.354510990902782E-004;
2.401666666666667E+009;1.590339392423630E-001;4.288842901587486E-002;-9.823406580835581E-004;2.404719270998612E-004;
2.401833333333334E+009;1.594066470861435E-001;4.067905619740486E-002;-7.604865822941065E-004;3.537279553711414E-004;
2.402000000000000E+009;1.596570461988449E-001;3.867463394999504E-002;-7.254885276779532E-004;2.750916173681617E-004;
2.402166666666667E+009;1.600884646177292E-001;3.667955100536346E-002;-8.537975372746587E-004;1.069989302777685E-004;
2.402333333333334E+009;1.607673317193985E-001;3.476411849260330E-002;-6.549891550093889E-004;1.380796456942335E-004;
2.402500000000000E+009;1.616603434085846E-001;3.296975791454315E-002;-5.947669269517064E-004;2.564140886534005E-004;
2.402666666666667E+009;1.621387153863907E-001;3.122594393789768E-002;-6.281174137257040E-004;-5.733438956667669E-005;
2.402833333333334E+009;1.630158573389053E-001;2.949844487011433E-002;-5.068934406153858E-004;-5.561199213843793E-005;
2.403000000000000E+009;1.635667532682419E-001;2.773732319474220E-002;-6.583933718502522E-004;4.401817568577826E-005;
2.403166666666667E+009;1.645528823137283E-001;2.616185322403908E-002;-6.088875816203654E-004;-3.477762802504003E-004;
2.403333333333334E+009;1.654568314552307E-001;2.473769709467888E-002;-5.579981370829046E-004;-8.835456537781283E-005;
2.403500000000000E+009;1.662229895591736E-001;2.336531132459641E-002;-4.476850444916636E-004;-2.421135868644342E-004;
2.403666666666667E+009;1.670759022235870E-001;2.175058797001839E-002;-4.886378883384168E-004;-2.716874296311289E-004;
2.403833333333334E+009;1.682922691106796E-001;2.064730413258076E-002;-5.844451952725649E-004;-3.504365158732981E-004;
2.404000000000000E+009;1.693178266286850E-001;1.958815380930901E-002;-5.596458795480430E-004;-4.032068536616862E-004;
2.404166666666667E+009;1.700606942176819E-001;1.829129643738270E-002;-7.778408471494913E-004;-4.704992170445621E-004;
2.404333333333334E+009;1.711101382970810E-001;1.738849468529224E-002;-6.699542282149196E-004;-3.947601071558893E-004;
2.404500000000000E+009;1.719350367784500E-001;1.623058319091797E-002;-7.887358660809696E-004;-5.190511001273990E-004;
2.404666666666667E+009;1.728778630495071E-001;1.556829269975424E-002;-7.313184323720634E-004;-4.368491936475039E-004;
2.404833333333334E+009;1.736776828765869E-001;1.465908437967300E-002;-6.965934881009162E-004;-6.783539429306984E-004;
2.405000000000000E+009;1.747333407402039E-001;1.406947243958712E-002;-8.938878308981657E-004;-6.735794595442712E-004;
2.405166666666667E+009;1.755873262882233E-001;1.322805508971214E-002;-9.608506225049496E-004;-6.710526067763567E-004;
2.405333333333334E+009;1.763495504856110E-001;1.270983926951885E-002;-1.047829282470048E-003;-5.813820753246546E-004;
2.405500000000000E+009;1.771264225244522E-001;1.226588338613510E-002;-1.021135947667062E-003;-6.994104478508234E-004;
2.405666666666667E+009;1.777771711349487E-001;1.183597836643457E-002;-1.158878905698657E-003;-6.361144478432834E-004;
2.405833333333334E+009;1.783811450004578E-001;1.149020902812481E-002;-1.222402439452708E-003;-6.117343436926603E-004;
2.406000000000000E+009;1.789982020854950E-001;1.099392026662827E-002;-1.397541956976056E-003;-6.127402302809060E-004;
2.406166666666667E+009;1.793368309736252E-001;1.088716741651297E-002;-1.467316062189639E-003;-6.913520046509802E-004;
2.406333333333334E+009;1.798762679100037E-001;1.037915144115686E-002;-1.470217597670853E-003;-4.870205593761057E-004;
2.406500000000000E+009;1.801610738039017E-001;1.019033137708902E-002;-1.471953117288649E-003;-5.314451991580427E-004;
2.406666666666667E+009;1.803317070007324E-001;9.925400838255882E-003;-1.534683397039771E-003;-4.082989471498877E-004;
2.406833333333334E+009;1.806544214487076E-001;9.508388116955757E-003;-1.703513204120100E-003;-3.904697368852794E-004;
2.407000000000000E+009;1.806661337614059E-001;9.240124374628067E-003;-1.708834664896131E-003;-3.193422453477979E-004;
2.407166666666667E+009;1.808644235134125E-001;8.981916122138500E-003;-1.841188757680357E-003;-1.986124989343807E-004;
2.407333333333334E+009;1.806408464908600E-001;8.555084466934204E-003;-1.886842306703329E-003;-2.262193011119962E-004;
2.407500000000000E+009;1.804481446743012E-001;8.183893747627735E-003;-1.935164211317897E-003;4.903812077827752E-005;
2.407666666666667E+009;1.802442669868469E-001;7.787281181663275E-003;-1.771220704540610E-003;1.503482394582534E-006;
2.407833333333334E+009;1.799652576446533E-001;7.173915393650532E-003;-1.752600539475679E-003;1.317286951234564E-004;
2.408000000000000E+009;1.795610785484314E-001;6.678447127342224E-003;-1.854969770647585E-003;1.565192360430956E-004;
2.408166666666667E+009;1.790773123502731E-001;6.103149149566889E-003;-1.780923106707633E-003;1.855155569501221E-004;
2.408333333333334E+009;1.788569092750549E-001;5.450099706649780E-003;-1.801755395717919E-003;4.255571984685957E-004;
2.408500000000000E+009;1.782175302505493E-001;4.618675913661718E-003;-1.694037113338709E-003;4.798687295988202E-004;
2.408666666666667E+009;1.776393651962280E-001;3.690629033371806E-003;-1.811418798752129E-003;5.470762844197452E-004;
2.408833333333334E+009;1.767856627702713E-001;2.625032560899854E-003;-1.806014450266957E-003;4.489832208491862E-004;
2.409000000000000E+009;1.762190312147141E-001;1.912791281938553E-003;-1.632714876905084E-003;4.999495577067137E-004;
2.409166666666667E+009;1.754600107669830E-001;6.204785313457251E-004;-1.627746503800154E-003;4.907629918307066E-004;
2.409333333333334E+009;1.749701946973801E-001;-6.842745933681727E-004;-1.655197353102267E-003;5.471933400258422E-004;
2.409500000000000E+009;1.743071228265762E-001;-1.976447878405452E-003;-1.773138297721744E-003;6.678577628917992E-004;
2.409666666666667E+009;1.733150780200958E-001;-3.321647178381681E-003;-1.689561060629785E-003;5.228007212281227E-004;
2.409833333333334E+009;1.727421879768372E-001;-4.682799335569143E-003;-1.514766947366297E-003;6.379945552907884E-004;
2.410000000000000E+009;1.721384227275848E-001;-6.203273311257362E-003;-1.496089273132384E-003;7.779865409247577E-004;
2.410166666666667E+009;1.715272665023804E-001;-7.741421461105347E-003;-1.480010454542935E-003;6.837085820734501E-004;
2.410333333333334E+009;1.707423478364945E-001;-9.280464611947537E-003;-1.534035196527839E-003;8.653532131575048E-004;
2.410500000000000E+009;1.702644675970078E-001;-1.096235215663910E-002;-1.473752199672163E-003;8.331832359544933E-004;
2.410666666666667E+009;1.697248965501785E-001;-1.280736643821001E-002;-1.455012359656394E-003;7.419487810693681E-004;
2.410833333333334E+009;1.693862229585648E-001;-1.457626931369305E-002;-1.471598865464330E-003;7.342390599660575E-004;
2.411000000000000E+009;1.689282953739166E-001;-1.628741063177586E-002;-1.499007339589298E-003;8.269855170510709E-004;
2.411166666666667E+009;1.686305850744247E-001;-1.836298964917660E-002;-1.609436585567892E-003;8.383122039958835E-004;
2.411333333333334E+009;1.684079170227051E-001;-2.015019580721855E-002;-1.548199565149844E-003;8.375370525754988E-004;
2.411500000000000E+009;1.681506931781769E-001;-2.226988412439823E-002;-1.443787245079875E-003;8.664659690111876E-004;
2.411666666666667E+009;1.680820435285568E-001;-2.410206757485867E-002;-1.525600091554225E-003;8.248680969700217E-004;
2.411833333333334E+009;1.680758595466614E-001;-2.604515664279461E-002;-1.451029675081372E-003;9.147020755335689E-004;
2.412000000000000E+009;1.682327240705490E-001;-2.795195393264294E-002;-1.609112718142569E-003;9.106125799007714E-004;
2.412166666666667E+009;1.682165861129761E-001;-2.998630702495575E-002;-1.470957417041063E-003;8.703753119334579E-004;
2.412333333333334E+009;1.685466617345810E-001;-3.184396773576737E-002;-1.663014758378267E-003;1.044055330567062E-003;
2.412500000000000E+009;1.685551553964615E-001;-3.378593921661377E-002;-1.412314362823963E-003;1.214149640873075E-003;
2.412666666666667E+009;1.688739061355591E-001;-3.580854460597038E-002;-1.620411872863770E-003;1.172599731944501E-003;
2.412833333333334E+009;1.694061607122421E-001;-3.759014606475830E-002;-1.469533191993833E-003;1.316138776019216E-003;
2.413000000000000E+009;1.697649657726288E-001;-3.940130397677422E-002;-1.589719322510064E-003;1.484829350374639E-003;
2.413166666666667E+009;1.701565682888031E-001;-4.124256223440170E-002;-1.512893126346171E-003;1.335914828814566E-003;
2.413333333333334E+009;1.705705076456070E-001;-4.286636412143707E-002;-1.547766150906682E-003;1.310021616518498E-003;
2.413500000000000E+009;1.711234450340271E-001;-4.450995475053787E-002;-1.599002280272543E-003;1.563432160764933E-003;
2.413666666666667E+009;1.717692613601685E-001;-4.620008915662766E-002;-1.593760447576642E-003;1.791957183741033E-003;
2.413833333333334E+009;1.720735877752304E-001;-4.782130569219589E-002;-1.547131454572082E-003;1.770013943314552E-003;
2.414000000000000E+009;1.725077778100967E-001;-4.927050322294235E-002;-1.480842125602067E-003;1.803841558285058E-003;
2.414166666666667E+009;1.733534783124924E-001;-5.032211169600487E-002;-1.457657432183623E-003;1.947759301401675E-003;
2.414333333333334E+009;1.737201064825058E-001;-5.179148912429810E-002;-1.343295676633716E-003;2.022765809670091E-003;
2.414500000000000E+009;1.745744496583939E-001;-5.276251584291458E-002;-1.302594784647226E-003;2.130716340616345E-003;
2.414666666666667E+009;1.749290078878403E-001;-5.388099700212479E-002;-1.137530081905425E-003;1.981177367269993E-003;
2.414833333333334E+009;1.754218339920044E-001;-5.492013320326805E-002;-1.159794395789504E-003;2.217048546299338E-003;
2.415000000000000E+009;1.759663075208664E-001;-5.583104118704796E-002;-1.137931016273797E-003;2.378673292696476E-003;
2.415166666666667E+009;1.762989759445190E-001;-5.655903369188309E-002;-1.031652092933655E-003;2.317325444892049E-003;
2.415333333333334E+009;1.767635345458984E-001;-5.736102536320686E-002;-9.459066786803305E-004;2.499256283044815E-003;
2.415500000000000E+009;1.770652383565903E-001;-5.794427916407585E-002;-9.327188599854708E-004;2.481349278241396E-003;
2.415666666666667E+009;1.773434877395630E-001;-5.845083296298981E-002;-7.165443385019898E-004;2.703232923522592E-003;
2.415833333333334E+009;1.775785535573959E-001;-5.913728475570679E-002;-6.506990175694227E-004;2.511473838239908E-003;
2.416000000000000E+009;1.776519566774368E-001;-5.941903963685036E-002;-6.596057792194188E-004;2.651753602549434E-003;
2.416166666666667E+009;1.779742538928986E-001;-5.985922738909721E-002;-5.198394064791501E-004;2.716126618906856E-003;
2.416333333333334E+009;1.777774989604950E-001;-6.018869206309319E-002;-4.855941515415907E-004;2.881284570321441E-003;
2.416500000000000E+009;1.776894629001617E-001;-6.049468740820885E-002;-2.998212003149092E-004;2.799931680783629E-003;
2.416666666666667E+009;1.774444878101349E-001;-6.067533418536186E-002;-2.664350031409413E-004;2.744397381320596E-003;
2.416833333333334E+009;1.773477196693420E-001;-6.100277230143547E-002;7.754092075629160E-005;2.851566066965461E-003;
2.417000000000000E+009;1.766941100358963E-001;-6.123204529285431E-002;1.986619827221148E-005;3.014300717040896E-003;
2.417166666666667E+009;1.763391941785812E-001;-6.134412810206413E-002;2.166096528526396E-004;2.913688542321324E-003;
2.417333333333334E+009;1.758567243814468E-001;-6.166947260499001E-002;2.081750862998888E-004;3.054599044844508E-003;
2.417500000000000E+009;1.752953529357910E-001;-6.189993768930435E-002;3.912954707629979E-004;3.055656328797340E-003;
2.417666666666667E+009;1.746229082345963E-001;-6.198868528008461E-002;5.516688106581569E-004;2.865907736122608E-003;
2.417833333333334E+009;1.737534701824188E-001;-6.224898993968964E-002;6.159061449579895E-004;3.036964917555451E-003;
2.418000000000000E+009;1.729365885257721E-001;-6.253191828727722E-002;7.852012058719993E-004;2.951638307422400E-003;
2.418166666666667E+009;1.717979311943054E-001;-6.283949315547943E-002;9.914452675729990E-004;2.756789093837142E-003;
2.418333333333334E+009;1.712166219949722E-001;-6.331077218055725E-002;1.075152889825404E-003;2.933643059805036E-003;
2.418500000000000E+009;1.700897961854935E-001;-6.364293396472931E-002;1.374406740069389E-003;2.743781078606844E-003;
2.418666666666667E+009;1.689585447311401E-001;-6.417507678270340E-002;1.361896400339901E-003;2.828267635777593E-003;
2.418833333333334E+009;1.676838845014572E-001;-6.491096317768097E-002;1.403662259690464E-003;2.726172795519233E-003;
2.419000000000000E+009;1.664772033691406E-001;-6.526671350002289E-002;1.618237001821399E-003;2.647037385031581E-003;
2.419166666666667E+009;1.653824001550674E-001;-6.587832421064377E-002;1.737353857606649E-003;2.608802402392030E-003;
2.419333333333334E+009;1.638842672109604E-001;-6.652487814426422E-002;1.917883404530585E-003;2.493278123438358E-003;
2.419500000000000E+009;1.629682630300522E-001;-6.763064116239548E-002;1.993895741179586E-003;2.398680197075009E-003;
2.419666666666667E+009;1.617655009031296E-001;-6.848891079425812E-002;1.978791318833828E-003;2.356233540922403E-003;
2.419833333333334E+009;1.605437248945236E-001;-6.929734349250794E-002;1.968878088518977E-003;2.134185051545501E-003;
2.420000000000000E+009;1.595086902379990E-001;-7.035135477781296E-002;2.286678412929177E-003;2.136169234290719E-003;
2.420166666666667E+009;1.582674384117127E-001;-7.152862101793289E-002;2.300418913364410E-003;1.906567602418363E-003;
2.420333333333334E+009;1.572293639183044E-001;-7.283464074134827E-002;2.292043063789606E-003;1.959315501153469E-003;
2.420500000000000E+009;1.561433076858521E-001;-7.381218671798706E-002;2.452680142596364E-003;1.667082891799510E-003;
2.420666666666667E+009;1.552180051803589E-001;-7.518480718135834E-002;2.507351106032729E-003;1.691052573733032E-003;
2.420833333333334E+009;1.544100642204285E-001;-7.668044418096542E-002;2.499982248991728E-003;1.504559186287224E-003;
2.421000000000000E+009;1.533868610858917E-001;-7.815761864185333E-002;2.761858981102705E-003;1.458277693018317E-003;
2.421166666666667E+009;1.526105999946594E-001;-7.945962250232697E-002;2.613490447402000E-003;1.249879715032876E-003;
2.421333333333334E+009;1.520912498235703E-001;-8.116725087165833E-002;2.680333331227303E-003;1.247397507540882E-003;
2.421500000000000E+009;1.512673348188400E-001;-8.262133598327637E-002;2.678992459550500E-003;9.949946543201804E-004;
2.421666666666667E+009;1.507843434810638E-001;-8.437438309192658E-002;2.661195350810885E-003;9.434134699404240E-004;
2.421833333333334E+009;1.502780169248581E-001;-8.592792600393295E-002;2.642694395035505E-003;7.156566134653986E-004;
2.422000000000000E+009;1.498692929744721E-001;-8.771576732397080E-002;2.669072942808271E-003;6.432661903090775E-004;
2.422166666666667E+009;1.495144665241242E-001;-8.957242965698242E-002;2.649667207151651E-003;5.559599376283586E-004;
2.422333333333334E+009;1.493195295333862E-001;-9.117729961872101E-002;2.686963882297278E-003;3.661235386971384E-004;
2.422500000000000E+009;1.491341590881348E-001;-9.261925518512726E-002;2.649866975843906E-003;2.119008568115532E-004;
2.422666666666667E+009;1.491178274154663E-001;-9.439393877983093E-002;2.548755612224340E-003;2.020426763920113E-004;
2.422833333333334E+009;1.491916626691818E-001;-9.619942307472229E-002;2.405580366030335E-003;-4.148776861256920E-005;
2.423000000000000E+009;1.492415219545364E-001;-9.791309386491776E-002;2.438675845041871E-003;3.394841087356326E-006;
2.423166666666667E+009;1.496452391147614E-001;-9.943052381277084E-002;2.286417176946998E-003;-1.097046770155430E-004;
2.423333333333334E+009;1.500544548034668E-001;-1.009144484996796E-001;2.240817062556744E-003;-6.138105527497828E-005;
2.423500000000000E+009;1.501892656087875E-001;-1.024652421474457E-001;2.326127374544740E-003;-3.443154273554683E-004;
2.423666666666667E+009;1.502711474895477E-001;-1.041080430150032E-001;2.181833609938622E-003;-2.953957300633192E-004;
2.423833333333334E+009;1.509619057178497E-001;-1.054709851741791E-001;2.057141624391079E-003;-4.528974532149732E-004;
2.424000000000000E+009;1.512569189071655E-001;-1.066756024956703E-001;2.103026024997234E-003;-4.985166015103459E-004;
2.424166666666667E+009;1.517498046159744E-001;-1.080581843852997E-001;1.880191499367356E-003;-5.026742001064122E-004;
2.424333333333334E+009;1.522490531206131E-001;-1.092113330960274E-001;1.913993735797703E-003;-5.292380810715258E-004;
2.424500000000000E+009;1.527274698019028E-001;-1.105196550488472E-001;1.854452886618674E-003;-6.090615061111748E-004;
2.424666666666667E+009;1.533734500408173E-001;-1.113134920597076E-001;1.802472979761660E-003;-6.037522689439356E-004;
2.424833333333334E+009;1.535878181457520E-001;-1.124871820211411E-001;1.724981237202883E-003;-5.565558094531298E-004;
2.425000000000000E+009;1.542179584503174E-001;-1.134076640009880E-001;1.587512786500156E-003;-7.078279159031808E-004;
2.425166666666667E+009;1.545472890138626E-001;-1.141797751188278E-001;1.551080495119095E-003;-4.720719007309526E-004;
2.425333333333334E+009;1.550594121217728E-001;-1.150803118944168E-001;1.649379264563322E-003;-6.613095756620169E-004;
2.425500000000000E+009;1.554220914840698E-001;-1.157549768686295E-001;1.535505289211869E-003;-5.727105308324099E-004;
2.425666666666667E+009;1.556168049573898E-001;-1.163639053702354E-001;1.462515210732818E-003;-5.255983560346067E-004;
2.425833333333334E+009;1.559088826179504E-001;-1.168711856007576E-001;1.442124135792255E-003;-6.596770836040378E-004;
2.426000000000000E+009;1.561493575572968E-001;-1.173773035407066E-001;1.431900425814092E-003;-7.520758663304150E-004;
2.426166666666667E+009;1.564595699310303E-001;-1.178341582417488E-001;1.414257101714611E-003;-6.093144183978438E-004;
2.426333333333334E+009;1.563123464584351E-001;-1.179724186658859E-001;1.348741468973458E-003;-5.997111438773572E-004;
2.426500000000000E+009;1.563885658979416E-001;-1.182456240057945E-001;1.379556371830404E-003;-5.336450994946063E-004;
2.426666666666667E+009;1.563658565282822E-001;-1.184017807245255E-001;1.362729934044182E-003;-4.559057124424726E-004;
2.426833333333334E+009;1.561448574066162E-001;-1.185539215803146E-001;1.454777433536947E-003;-5.813157185912132E-004;
2.427000000000000E+009;1.558704227209091E-001;-1.187608614563942E-001;1.309001236222684E-003;-5.833490868099034E-004;
2.427166666666667E+009;1.555041223764420E-001;-1.186906397342682E-001;1.390333287417889E-003;-5.298247560858727E-004;
2.427333333333334E+009;1.549959182739258E-001;-1.189460754394531E-001;1.252344576641917E-003;-6.690381560474634E-004;
2.427500000000000E+009;1.544505506753922E-001;-1.190101280808449E-001;1.445746049284935E-003;-7.308152853511274E-004;
2.427666666666667E+009;1.539338976144791E-001;-1.190335676074028E-001;1.327022677287459E-003;-6.748802843503654E-004;
