# Version 1.00
#
freq[Hz];re:Trc1_S11;im:Trc1_S11;re:Trc2_S21;im:Trc2_S21;
2.400000000000000E+009;1.548656970262528E-001;1.066463440656662E-001;-3.809856250882149E-003;-8.928556926548481E-004;
2.400166666666667E+009;1.546916067600250E-001;1.042746603488922E-001;-4.052889533340931E-003;-9.624437079764903E-004;
2.400333333333334E+009;1.547188162803650E-001;1.019434034824371E-001;-4.097995813935995E-003;-8.458253578282893E-004;
2.400500000000000E+009;1.545686870813370E-001;9.920945018529892E-002;-4.187804646790028E-003;-7.308337953872979E-004;
2.400666666666667E+009;1.547549515962601E-001;9.672197699546814E-002;-4.206421785056591E-003;-7.586457068100572E-004;
2.400833333333334E+009;1.546356379985809E-001;9.372121840715408E-002;-4.243487957865000E-003;-5.194153636693955E-004;
2.401000000000000E+009;1.548375189304352E-001;9.089259803295136E-002;-4.305510316044092E-003;-3.846456529572606E-004;
2.401166666666667E+009;1.548664271831513E-001;8.812069147825241E-002;-4.214154090732336E-003;-3.584691730793566E-004;
2.401333333333334E+009;1.551007628440857E-001;8.545903861522675E-002;-4.391735419631004E-003;-1.695378159638494E-004;
2.401500000000000E+009;1.554630845785141E-001;8.257743716239929E-002;-4.312173929065466E-003;-3.335084766149521E-004;
2.401666666666667E+009;1.557810455560684E-001;7.967060059309006E-002;-4.275754559785128E-003;-1.700542088656221E-005;
2.401833333333334E+009;1.563759446144104E-001;7.704601436853409E-002;-4.346113186329603E-003;-4.376806828076951E-005;
2.402000000000000E+009;1.570563316345215E-001;7.394846528768539E-002;-4.379405174404383E-003;1.018216862576082E-004;
2.402166666666667E+009;1.577856987714768E-001;7.161838561296463E-002;-4.222920164465904E-003;2.170717343688011E-004;
2.402333333333334E+009;1.588433086872101E-001;6.891369819641113E-002;-4.368580877780914E-003;2.177816932089627E-004;
2.402500000000000E+009;1.598374843597412E-001;6.645809113979340E-002;-4.349961411207914E-003;4.744956968352199E-004;
2.402666666666667E+009;1.612086296081543E-001;6.404494494199753E-002;-4.282534588128328E-003;5.983057199046016E-004;
2.402833333333334E+009;1.623853743076325E-001;6.156510114669800E-002;-4.534360021352768E-003;8.444405975751579E-004;
2.403000000000000E+009;1.639593392610550E-001;5.932830646634102E-002;-4.522848874330521E-003;7.698276895098388E-004;
2.403166666666667E+009;1.655928790569305E-001;5.720177292823792E-002;-4.490946885198355E-003;1.020770170725882E-003;
2.403333333333334E+009;1.671219170093536E-001;5.499852076172829E-002;-4.550581797957420E-003;1.394896418787539E-003;
2.403500000000000E+009;1.688461303710938E-001;5.295434966683388E-002;-4.614220932126045E-003;1.539567136205733E-003;
2.403666666666667E+009;1.705128252506256E-001;5.096765980124474E-002;-4.636522382497788E-003;1.764752087183297E-003;
2.403833333333334E+009;1.721367090940476E-001;4.910183325409889E-002;-4.437759984284639E-003;1.903993426822126E-003;
2.404000000000000E+009;1.735816299915314E-001;4.748947545886040E-002;-4.380964208394289E-003;2.188832266256213E-003;
2.404166666666667E+009;1.756118983030319E-001;4.571226239204407E-002;-4.213764332234860E-003;2.444856101647019E-003;
2.404333333333334E+009;1.773480474948883E-001;4.452905431389809E-002;-3.949091769754887E-003;2.533009974285960E-003;
2.404500000000000E+009;1.787953227758408E-001;4.300287365913391E-002;-3.826723434031010E-003;2.886014757677913E-003;
2.404666666666667E+009;1.803406327962875E-001;4.211226105690002E-002;-3.817702876403928E-003;2.889543771743774E-003;
2.404833333333334E+009;1.825427561998367E-001;4.088056087493897E-002;-3.629550803452730E-003;3.065218916162849E-003;
2.405000000000000E+009;1.834609955549240E-001;4.034933820366859E-002;-3.260226221755147E-003;3.033716930076480E-003;
2.405166666666667E+009;1.854317039251328E-001;3.980903699994087E-002;-3.163687651976943E-003;3.184833563864231E-003;
2.405333333333334E+009;1.865450143814087E-001;3.939952328801155E-002;-3.147136420011520E-003;3.248537192121148E-003;
2.405500000000000E+009;1.881572902202606E-001;3.855381160974503E-002;-2.850175136700273E-003;3.430494572967291E-003;
2.405666666666667E+009;1.893130987882614E-001;3.824272751808167E-002;-2.643797313794494E-003;3.325788769870997E-003;
2.405833333333334E+009;1.905028969049454E-001;3.800281509757042E-002;-2.590903313830495E-003;3.441522130742669E-003;
2.406000000000000E+009;1.916365623474121E-001;3.791867569088936E-002;-2.558220410719514E-003;3.511042799800634E-003;
2.406166666666667E+009;1.925614178180695E-001;3.773889690637589E-002;-2.403916325420141E-003;3.655913984403014E-003;
2.406333333333334E+009;1.935214549303055E-001;3.775959089398384E-002;-2.124148653820157E-003;3.507473273202777E-003;
2.406500000000000E+009;1.942406445741653E-001;3.783325105905533E-002;-2.035688143223524E-003;3.690125187858939E-003;
2.406666666666667E+009;1.948749423027039E-001;3.773655742406845E-002;-1.894655637443066E-003;3.546471009030938E-003;
2.406833333333334E+009;1.954993009567261E-001;3.778606280684471E-002;-1.713995821774006E-003;3.613087814301252E-003;
2.407000000000000E+009;1.957985311746597E-001;3.819473832845688E-002;-1.557535724714398E-003;3.630546852946281E-003;
2.407166666666667E+009;1.962700188159943E-001;3.799060732126236E-002;-1.393874059431255E-003;3.644356038421392E-003;
2.407333333333334E+009;1.961759030818939E-001;3.818257898092270E-002;-1.455653342418373E-003;3.548617707565427E-003;
2.407500000000000E+009;1.960954964160919E-001;3.830025345087051E-002;-1.093759317882359E-003;3.712265519425273E-003;
2.407666666666667E+009;1.961664259433746E-001;3.821355476975441E-002;-8.828781428746879E-004;3.529917215928435E-003;
2.407833333333334E+009;1.956988573074341E-001;3.811298310756683E-002;-7.809628150425851E-004;3.583746030926704E-003;
2.408000000000000E+009;1.956197768449783E-001;3.800960257649422E-002;-7.886356906965375E-004;3.379197791218758E-003;
2.408166666666667E+009;1.950617879629135E-001;3.792078793048859E-002;-5.421182722784579E-004;3.322965931147337E-003;
2.408333333333334E+009;1.946232914924622E-001;3.724310919642448E-002;-6.659878999926150E-004;3.411329351365566E-003;
2.408500000000000E+009;1.939326226711273E-001;3.706184774637222E-002;-3.231817681808025E-004;3.257779870182276E-003;
2.408666666666667E+009;1.933179944753647E-001;3.649277612566948E-002;-2.607153146527708E-004;3.257270436733961E-003;
2.408833333333334E+009;1.927748173475266E-001;3.586320206522942E-002;-3.571932611521334E-004;3.105667652562261E-003;
2.409000000000000E+009;1.918122172355652E-001;3.485790640115738E-002;-2.097801771014929E-004;3.227999201044440E-003;
2.409166666666667E+009;1.907912790775299E-001;3.392830863595009E-002;-1.763851323630661E-004;2.939234022051096E-003;
2.409333333333334E+009;1.899350583553314E-001;3.288782015442848E-002;-3.904743934981525E-004;3.069860860705376E-003;
2.409500000000000E+009;1.889926791191101E-001;3.192356973886490E-002;2.446980397508014E-005;2.948328154161573E-003;
2.409666666666667E+009;1.876564770936966E-001;3.024502657353878E-002;-1.873992441687733E-004;3.061254974454641E-003;
2.409833333333334E+009;1.865688115358353E-001;2.870731055736542E-002;-1.815042196540162E-004;2.971150912344456E-003;
2.410000000000000E+009;1.858489364385605E-001;2.703513763844967E-002;-2.807627024594694E-004;2.964926185086370E-003;
2.410166666666667E+009;1.849741488695145E-001;2.521379105746746E-002;-2.853387195500545E-005;2.816260326653719E-003;
2.410333333333334E+009;1.839678883552551E-001;2.314299158751965E-002;-1.952163001988083E-004;2.749107312411070E-003;
2.410500000000000E+009;1.828610599040985E-001;2.124745398759842E-002;-9.950496314559132E-005;2.805030904710293E-003;
2.410666666666667E+009;1.820562183856964E-001;1.890757307410240E-002;-4.873580110142939E-005;2.762882038950920E-003;
2.410833333333334E+009;1.813618987798691E-001;1.689882017672062E-002;1.995783386519179E-004;2.896240213885903E-003;
2.411000000000000E+009;1.806978285312653E-001;1.462491508573294E-002;1.019318588078022E-004;2.835365710780025E-003;
2.411166666666667E+009;1.799133270978928E-001;1.230646111071110E-002;1.435805024811998E-004;2.884143730625510E-003;
2.411333333333334E+009;1.794425547122955E-001;9.845535270869732E-003;1.434645819244906E-004;2.904380904510617E-003;
2.411500000000000E+009;1.788702905178070E-001;7.373187690973282E-003;2.311935386387631E-004;2.835435327142477E-003;
2.411666666666667E+009;1.788105666637421E-001;5.016620270907879E-003;4.389233363326639E-004;2.683266997337341E-003;
2.411833333333334E+009;1.784136593341827E-001;2.518831519410014E-003;3.144250949844718E-004;2.895753830671310E-003;
2.412000000000000E+009;1.787192374467850E-001;2.960676829388831E-005;4.764548502862454E-004;2.551789861172438E-003;
2.412166666666667E+009;1.786583960056305E-001;-2.396592870354652E-003;4.889744450338185E-004;2.613616874441505E-003;
2.412333333333334E+009;1.790104359388351E-001;-4.950056318193674E-003;5.238196463324130E-004;2.521563321352005E-003;
2.412500000000000E+009;1.792846322059631E-001;-7.373150903731585E-003;4.294236132409424E-004;2.517733024433255E-003;
2.412666666666667E+009;1.799350082874298E-001;-1.001848373562098E-002;3.904235491063446E-004;2.361546736210585E-003;
2.412833333333334E+009;1.804413795471191E-001;-1.245561800897121E-002;4.308643692638725E-004;2.470890060067177E-003;
2.413000000000000E+009;1.813382655382156E-001;-1.471403241157532E-002;5.877155927009881E-004;2.348846057429910E-003;
2.413166666666667E+009;1.819069385528565E-001;-1.691029965877533E-002;4.950577858835459E-004;2.424687612801790E-003;
2.413333333333334E+009;1.832455992698669E-001;-1.938858069479466E-002;4.594579513650388E-004;2.446569269523025E-003;
2.413500000000000E+009;1.840297281742096E-001;-2.170742303133011E-002;2.907981979660690E-004;2.619179431349039E-003;
2.413666666666667E+009;1.852625012397766E-001;-2.388085238635540E-002;3.525253850966692E-004;2.677900251001120E-003;
2.413833333333334E+009;1.863231062889099E-001;-2.591165900230408E-002;3.902497119270265E-004;2.872988581657410E-003;
2.414000000000000E+009;1.872844845056534E-001;-2.787289954721928E-002;4.519135691225529E-004;2.791202859953046E-003;
2.414166666666667E+009;1.885522603988648E-001;-2.973465994000435E-002;8.242567419074476E-004;2.817688509821892E-003;
2.414333333333334E+009;1.896749138832092E-001;-3.161564841866493E-002;7.190112373791635E-004;2.901511033996940E-003;
2.414500000000000E+009;1.909977793693543E-001;-3.310146555304527E-002;1.028380822390318E-003;3.038956550881267E-003;
2.414666666666667E+009;1.921612173318863E-001;-3.464373946189880E-002;1.098080421797931E-003;2.899661660194397E-003;
2.414833333333334E+009;1.932847946882248E-001;-3.598216176033020E-002;1.195861492305994E-003;3.010674379765987E-003;
2.415000000000000E+009;1.944029331207275E-001;-3.727930784225464E-002;1.371792634017766E-003;3.072003833949566E-003;
2.415166666666667E+009;1.956564188003540E-001;-3.843672201037407E-002;1.483518397435546E-003;2.880253596231341E-003;
2.415333333333334E+009;1.967666298151016E-001;-3.926118090748787E-002;1.663146656937897E-003;2.726298291236162E-003;
2.415500000000000E+009;1.977725327014923E-001;-4.008383303880692E-002;1.730203279294074E-003;2.716326154768467E-003;
2.415666666666667E+009;1.988068073987961E-001;-4.088927805423737E-002;1.899568131193519E-003;2.534697065129876E-003;
2.415833333333334E+009;1.996732056140900E-001;-4.150578379631043E-002;1.846193452365696E-003;2.456044778227806E-003;
2.416000000000000E+009;2.005150616168976E-001;-4.204714670777321E-002;1.864554127678275E-003;2.436785493046045E-003;
2.416166666666667E+009;2.011501789093018E-001;-4.241664707660675E-002;1.934594707563520E-003;2.430095802992582E-003;
2.416333333333334E+009;2.018508613109589E-001;-4.274960607290268E-002;2.047326415777206E-003;2.283090259879828E-003;
2.416500000000000E+009;2.023140788078308E-001;-4.304334893822670E-002;2.031202428042889E-003;2.359568607062101E-003;
2.416666666666667E+009;2.025944590568543E-001;-4.335158318281174E-002;2.180706709623337E-003;2.281845780089498E-003;
2.416833333333334E+009;2.026849538087845E-001;-4.325790330767632E-002;2.306799637153745E-003;2.131493063643575E-003;
2.417000000000000E+009;2.029089182615280E-001;-4.343032091856003E-002;2.125991974025965E-003;2.115499228239059E-003;
2.417166666666667E+009;2.025437355041504E-001;-4.333045333623886E-002;2.181939780712128E-003;2.081309445202351E-003;
2.417333333333334E+009;2.024190574884415E-001;-4.307582601904869E-002;2.241547685116530E-003;2.008647192269564E-003;
2.417500000000000E+009;2.021072208881378E-001;-4.312411695718765E-002;2.408318920060992E-003;2.099543577060103E-003;
2.417666666666667E+009;2.016433030366898E-001;-4.292771592736244E-002;2.417217940092087E-003;2.054853830486536E-003;
2.417833333333334E+009;2.011415660381317E-001;-4.266155883669853E-002;2.524330746382475E-003;1.937090186402202E-003;
2.418000000000000E+009;2.004216909408569E-001;-4.248545691370964E-002;2.535748062655330E-003;1.990849617868662E-003;
2.418166666666667E+009;1.997422277927399E-001;-4.236699640750885E-002;2.806788077577949E-003;1.859533949755132E-003;
2.418333333333334E+009;1.986979246139526E-001;-4.213735088706017E-002;2.784818410873413E-003;1.885752659291029E-003;
2.418500000000000E+009;1.977827101945877E-001;-4.221764579415321E-002;2.830998273566365E-003;1.815981813706458E-003;
2.418666666666667E+009;1.965930312871933E-001;-4.217962920665741E-002;3.130030818283558E-003;1.772819319739938E-003;
2.418833333333334E+009;1.954066604375839E-001;-4.228507727384567E-002;3.172137774527073E-003;1.646570046432316E-003;
2.419000000000000E+009;1.940943747758865E-001;-4.253904148936272E-002;3.141523571684957E-003;1.554245944134891E-003;
2.419166666666667E+009;1.929471939802170E-001;-4.279324039816856E-002;3.334326436743140E-003;1.453478354960680E-003;
2.419333333333334E+009;1.913471370935440E-001;-4.329500347375870E-002;3.354915883392096E-003;1.235228264704347E-003;
2.419500000000000E+009;1.899114549160004E-001;-4.376269504427910E-002;3.558005904778838E-003;1.182890497148037E-003;
2.419666666666667E+009;1.883392035961151E-001;-4.454948008060455E-002;3.480232087895274E-003;1.161594409495592E-003;
2.419833333333334E+009;1.865210086107254E-001;-4.514345526695252E-002;3.573216730728746E-003;8.229328086599708E-004;
2.420000000000000E+009;1.850807070732117E-001;-4.606132954359055E-002;3.491606330499053E-003;7.433614227920771E-004;
2.420166666666667E+009;1.835066676139832E-001;-4.701158031821251E-002;3.496962366625667E-003;4.736509872600436E-004;
2.420333333333334E+009;1.818017214536667E-001;-4.804961383342743E-002;3.649125108495355E-003;4.712247464340180E-004;
2.420500000000000E+009;1.800618320703507E-001;-4.938169196248055E-002;3.653167281299830E-003;4.630118783097714E-004;
2.420666666666667E+009;1.784106194972992E-001;-5.052202939987183E-002;3.669139929115772E-003;2.115845272783190E-004;
2.420833333333334E+009;1.767186969518662E-001;-5.213849246501923E-002;3.574894741177559E-003;2.206484641646966E-004;
2.421000000000000E+009;1.752717941999435E-001;-5.374006181955338E-002;3.676580497995019E-003;3.537475640769117E-005;
2.421166666666667E+009;1.738400608301163E-001;-5.533657222986221E-002;3.665679600089788E-003;-2.228752418886870E-004;
2.421333333333334E+009;1.723052412271500E-001;-5.698500573635101E-002;3.596143098548055E-003;-3.745794820133597E-004;
2.421500000000000E+009;1.708952486515045E-001;-5.888232588768005E-002;3.614820772781968E-003;-4.329401999711990E-004;
2.421666666666667E+009;1.698095202445984E-001;-6.073660030961037E-002;3.572992281988263E-003;-6.077880389057100E-004;
2.421833333333334E+009;1.686548143625259E-001;-6.263186782598496E-002;3.518806770443916E-003;-8.665740606375039E-004;
2.422000000000000E+009;1.672838181257248E-001;-6.464799493551254E-002;3.425211645662785E-003;-1.006215112283826E-003;
2.422166666666667E+009;1.665270328521729E-001;-6.661902368068695E-002;3.374468768015504E-003;-1.136275357566774E-003;
2.422333333333334E+009;1.655738502740860E-001;-6.868698447942734E-002;3.315384034067392E-003;-1.331309438683093E-003;
2.422500000000000E+009;1.646632105112076E-001;-7.078014314174652E-002;3.258884884417057E-003;-1.341136987321079E-003;
2.422666666666667E+009;1.640029996633530E-001;-7.269188016653061E-002;2.996051451191306E-003;-1.544500933960080E-003;
2.422833333333334E+009;1.634517610073090E-001;-7.475225627422333E-002;2.945275511592627E-003;-1.689291559159756E-003;
2.423000000000000E+009;1.629763990640640E-001;-7.677311450242996E-002;2.827979624271393E-003;-1.707583782263100E-003;
2.423166666666667E+009;1.627571135759354E-001;-7.872194796800613E-002;2.710638334974647E-003;-1.766291097737849E-003;
2.423333333333334E+009;1.624109148979187E-001;-8.087594062089920E-002;2.592750592157245E-003;-1.926016062498093E-003;
2.423500000000000E+009;1.624166369438171E-001;-8.257617801427841E-002;2.325541572645307E-003;-2.054117852821946E-003;
2.423666666666667E+009;1.623917073011398E-001;-8.447625488042831E-002;2.210553502663970E-003;-1.823918428272009E-003;
2.423833333333334E+009;1.623943597078323E-001;-8.643143624067307E-002;2.017638878896833E-003;-1.938742119818926E-003;
2.424000000000000E+009;1.624726802110672E-001;-8.819966018199921E-002;1.959028653800488E-003;-1.979460706934333E-003;
2.424166666666667E+009;1.627107858657837E-001;-8.973153680562973E-002;1.951100653968751E-003;-1.838863710872829E-003;
2.424333333333334E+009;1.628506630659103E-001;-9.125918149948120E-002;1.920047565363348E-003;-2.058715093880892E-003;
2.424500000000000E+009;1.632709801197052E-001;-9.292691946029663E-002;1.707058865576983E-003;-1.984319882467389E-003;
2.424666666666667E+009;1.634747833013535E-001;-9.441178292036057E-002;1.774553908035159E-003;-1.880294177681208E-003;
2.424833333333334E+009;1.640863269567490E-001;-9.562165290117264E-002;1.578515628352761E-003;-1.794888754375279E-003;
2.425000000000000E+009;1.644431203603745E-001;-9.684972465038300E-002;1.362127601169050E-003;-1.939494977705181E-003;
2.425166666666667E+009;1.647841930389404E-001;-9.787832945585251E-002;1.248907996341586E-003;-2.015331294387579E-003;
2.425333333333334E+009;1.651744395494461E-001;-9.892793744802475E-002;1.258802600204945E-003;-2.127278363332152E-003;
2.425500000000000E+009;1.655778586864471E-001;-9.981140494346619E-002;1.084238989278674E-003;-1.904218690469861E-003;
2.425666666666667E+009;1.659965068101883E-001;-1.004496216773987E-001;1.293165725655854E-003;-1.867588376626372E-003;
2.425833333333334E+009;1.662919670343399E-001;-1.013063937425613E-001;1.044609234668315E-003;-1.919230329804122E-003;
2.426000000000000E+009;1.667999029159546E-001;-1.016727611422539E-001;7.627694285474718E-004;-2.019328298047185E-003;
2.426166666666667E+009;1.672420650720596E-001;-1.021918579936028E-001;9.726897696964443E-004;-1.782666542567313E-003;
2.426333333333334E+009;1.672558039426804E-001;-1.026315763592720E-001;8.657621219754219E-004;-1.826205640099943E-003;
2.426500000000000E+009;1.677103787660599E-001;-1.029027253389359E-001;7.464802474714816E-004;-1.780786667950451E-003;
2.426666666666667E+009;1.679778248071671E-001;-1.032622531056404E-001;6.005429313518107E-004;-1.928073237650096E-003;
2.426833333333334E+009;1.681387275457382E-001;-1.034308895468712E-001;6.215014145709574E-004;-1.605784986168146E-003;
2.427000000000000E+009;1.681554764509201E-001;-1.036419644951820E-001;5.816017510369420E-004;-1.718360232189298E-003;
2.427166666666667E+009;1.681822687387466E-001;-1.037108078598976E-001;5.621220916509628E-004;-1.522194244898856E-003;
2.427333333333334E+009;1.679459810256958E-001;-1.038999184966087E-001;4.822181363124400E-004;-1.719028106890619E-003;
2.427500000000000E+009;1.677953302860260E-001;-1.040336191654205E-001;4.576538049150258E-004;-1.429653726518154E-003;
2.427666666666667E+009;1.674914062023163E-001;-1.040279865264893E-001;4.444525693543255E-004;-1.362218870781362E-003;
2.427833333333334E+009;1.671496033668518E-001;-1.042079180479050E-001;3.752933407668024E-004;-1.388499280437827E-003;
