# Version 1.00
#
freq[Hz];re:Trc1_S11;im:Trc1_S11;re:Trc2_S21;im:Trc2_S21;
2.400000000000000E+009;1.556130051612854E-001;1.066805124282837E-001;-4.274492617696524E-003;-8.222303586080670E-004;
2.400166666666667E+009;1.551065444946289E-001;1.042473465204239E-001;-4.039223771542311E-003;-8.463219855912030E-004;
2.400333333333334E+009;1.552433073520660E-001;1.016909033060074E-001;-4.138138145208359E-003;-8.425667183473706E-004;
2.400500000000000E+009;1.550716161727905E-001;9.902700036764145E-002;-4.124565050005913E-003;-6.163909565657377E-004;
2.400666666666667E+009;1.552156060934067E-001;9.639491140842438E-002;-4.176791291683912E-003;-5.348175182007253E-004;
2.400833333333334E+009;1.551631093025208E-001;9.357811510562897E-002;-4.317308310419321E-003;-4.421904741320759E-004;
2.401000000000000E+009;1.552355587482452E-001;9.084099531173706E-002;-4.323730245232582E-003;-2.842619433067739E-004;
2.401166666666667E+009;1.554698646068573E-001;8.797751367092133E-002;-4.207477904856205E-003;-2.674711868166924E-004;
2.401333333333334E+009;1.554041653871536E-001;8.523900061845779E-002;-4.307201132178307E-003;-1.192578929476440E-004;
2.401500000000000E+009;1.561093628406525E-001;8.225307613611221E-002;-4.414920229464769E-003;4.727230134449201E-006;
2.401666666666667E+009;1.563391238451004E-001;7.939446717500687E-002;-4.317047540098429E-003;9.631385910324752E-005;
2.401833333333334E+009;1.567501127719879E-001;7.670909166336060E-002;-4.291608929634094E-003;2.215957792941481E-004;
2.402000000000000E+009;1.575475931167603E-001;7.382842153310776E-002;-4.245467018336058E-003;3.188840637449175E-004;
2.402166666666667E+009;1.583196967840195E-001;7.146913558244705E-002;-4.389387555420399E-003;4.484765231609345E-004;
2.402333333333334E+009;1.593074500560761E-001;6.855467706918716E-002;-4.371324554085732E-003;4.643384309019893E-004;
2.402500000000000E+009;1.605439186096191E-001;6.615714728832245E-002;-4.488012753427029E-003;7.907135295681655E-004;
2.402666666666667E+009;1.615893244743347E-001;6.373619288206101E-002;-4.439408425241709E-003;5.867490544915199E-004;
2.402833333333334E+009;1.626259088516235E-001;6.127506121993065E-002;-4.476159811019898E-003;8.970128255896270E-004;
2.403000000000000E+009;1.643329560756683E-001;5.899149179458618E-002;-4.585188347846270E-003;1.003572368063033E-003;
2.403166666666667E+009;1.659793704748154E-001;5.678022652864456E-002;-4.459480755031109E-003;1.313435030169785E-003;
2.403333333333334E+009;1.675583720207214E-001;5.456807464361191E-002;-4.463206045329571E-003;1.534293987788260E-003;
2.403500000000000E+009;1.692072004079819E-001;5.253474786877632E-002;-4.489238373935223E-003;1.838999451138079E-003;
2.403666666666667E+009;1.710817366838455E-001;5.055835843086243E-002;-4.439170006662607E-003;2.016581129282713E-003;
2.403833333333334E+009;1.726257055997849E-001;4.874774441123009E-002;-4.330546129494906E-003;2.190841594710946E-003;
2.404000000000000E+009;1.739713996648789E-001;4.686460644006729E-002;-4.334892611950636E-003;2.365817083045840E-003;
2.404166666666667E+009;1.760980933904648E-001;4.553717374801636E-002;-4.043695051223040E-003;2.566519193351269E-003;
2.404333333333334E+009;1.776351630687714E-001;4.417578876018524E-002;-4.088962450623512E-003;2.743906807154417E-003;
2.404500000000000E+009;1.791945099830627E-001;4.277428239583969E-002;-3.983153030276299E-003;2.860731445252895E-003;
2.404666666666667E+009;1.810968220233917E-001;4.169289022684097E-002;-3.577523399144411E-003;3.172440687194467E-003;
2.404833333333334E+009;1.826003491878510E-001;4.048623889684677E-002;-3.457457292824984E-003;3.082937560975552E-003;
2.405000000000000E+009;1.838692277669907E-001;3.997892513871193E-002;-3.267031395807862E-003;3.251576563343406E-003;
2.405166666666667E+009;1.854618340730667E-001;3.925514221191406E-002;-3.153636353090406E-003;3.379851579666138E-003;
2.405333333333334E+009;1.869610846042633E-001;3.866117820143700E-002;-3.020563395693898E-003;3.495266195386648E-003;
2.405500000000000E+009;1.882383227348328E-001;3.824179992079735E-002;-2.925827866420150E-003;3.424786264076829E-003;
2.405666666666667E+009;1.895549297332764E-001;3.771914169192314E-002;-2.608417766168714E-003;3.450871910899878E-003;
2.405833333333334E+009;1.907414793968201E-001;3.772683069109917E-002;-2.604875713586807E-003;3.595017828047276E-003;
2.406000000000000E+009;1.916803270578384E-001;3.746845945715904E-002;-2.347313100472093E-003;3.606292884796858E-003;
2.406166666666667E+009;1.926965415477753E-001;3.729123622179031E-002;-2.189583145081997E-003;3.662307281047106E-003;
2.406333333333334E+009;1.936236768960953E-001;3.730941191315651E-002;-2.136184135451913E-003;3.796391189098358E-003;
2.406500000000000E+009;1.944011896848679E-001;3.747663646936417E-002;-1.915030530653894E-003;3.764894092455506E-003;
2.406666666666667E+009;1.949700117111206E-001;3.751764073967934E-002;-1.762570813298225E-003;3.771999152377248E-003;
2.406833333333334E+009;1.955601722002029E-001;3.755919635295868E-002;-1.622604671865702E-003;3.824753919616342E-003;
2.407000000000000E+009;1.958640515804291E-001;3.773096948862076E-002;-1.334168133325875E-003;3.757962724193931E-003;
2.407166666666667E+009;1.962219923734665E-001;3.765388205647469E-002;-1.088095013983548E-003;3.709995187819004E-003;
2.407333333333334E+009;1.961136758327484E-001;3.775734454393387E-002;-1.059397240169346E-003;3.646145574748516E-003;
2.407500000000000E+009;1.960473060607910E-001;3.798877447843552E-002;-9.372014901600778E-004;3.790917806327343E-003;
2.407666666666667E+009;1.960859298706055E-001;3.788877651095390E-002;-9.010753128677607E-004;3.622275311499834E-003;
2.407833333333334E+009;1.956773251295090E-001;3.784984722733498E-002;-8.129499037750065E-004;3.414074657484889E-003;
2.408000000000000E+009;1.955570876598358E-001;3.759744390845299E-002;-5.156136467121542E-004;3.640990471467376E-003;
2.408166666666667E+009;1.950502693653107E-001;3.747434541583061E-002;-5.842240061610937E-004;3.476910525932908E-003;
2.408333333333334E+009;1.946208775043488E-001;3.688323870301247E-002;-3.072092949878424E-004;3.392362268641591E-003;
2.408500000000000E+009;1.939628720283508E-001;3.665849938988686E-002;-1.581708202138543E-004;3.228469751775265E-003;
2.408666666666667E+009;1.933646500110626E-001;3.608531504869461E-002;-3.755087673198432E-004;3.206972731277347E-003;
2.408833333333334E+009;1.926894187927246E-001;3.547574579715729E-002;-2.124114835169166E-004;3.208191366866231E-003;
2.409000000000000E+009;1.916744709014893E-001;3.451973572373390E-002;-7.180757529567927E-005;3.090769983828068E-003;
2.409166666666667E+009;1.908200532197952E-001;3.342287242412567E-002;-1.091867452487350E-004;3.071068320423365E-003;
2.409333333333334E+009;1.899639964103699E-001;3.250341489911079E-002;-3.694817132782191E-005;2.946045482531190E-003;
2.409500000000000E+009;1.888626068830490E-001;3.120809420943260E-002;-4.245605668984354E-005;2.946080872789025E-003;
2.409666666666667E+009;1.878656595945358E-001;2.976864203810692E-002;-8.069892646744847E-005;2.852635923773050E-003;
2.409833333333334E+009;1.866983771324158E-001;2.819753624498844E-002;-2.074083749903366E-004;2.836007624864578E-003;
2.410000000000000E+009;1.858393251895905E-001;2.653696201741695E-002;1.889755512820557E-004;2.739065792411566E-003;
2.410166666666667E+009;1.848163157701492E-001;2.469872497022152E-002;-6.936702266102657E-005;2.771623898297548E-003;
2.410333333333334E+009;1.838228106498718E-001;2.273979969322681E-002;-9.133997991739307E-006;2.848066622391343E-003;
2.410500000000000E+009;1.828224956989288E-001;2.088861167430878E-002;4.143873957218602E-005;2.979950746521354E-003;
2.410666666666667E+009;1.818439364433289E-001;1.851947419345379E-002;3.788227331824601E-005;2.786005847156048E-003;
2.410833333333334E+009;1.812992393970490E-001;1.639696210622788E-002;1.781885075615719E-004;2.845391165465117E-003;
2.411000000000000E+009;1.803978979587555E-001;1.412925496697426E-002;2.017259539570659E-004;2.885059919208288E-003;
2.411166666666667E+009;1.796728968620300E-001;1.200881414115429E-002;1.679574343143031E-004;2.858706051483750E-003;
2.411333333333334E+009;1.791440695524216E-001;9.528132155537605E-003;3.019276773557067E-004;2.888898365199566E-003;
2.411500000000000E+009;1.786485314369202E-001;6.893532816320658E-003;3.196909092366695E-004;2.721373690292239E-003;
2.411666666666667E+009;1.784040778875351E-001;4.556942265480757E-003;5.236121360212565E-004;2.674673218280077E-003;
2.411833333333334E+009;1.782415211200714E-001;2.233796287328005E-003;6.171858985908330E-004;2.633238909766078E-003;
2.412000000000000E+009;1.783999651670456E-001;-2.191683597629890E-004;5.693014827556908E-004;2.540386980399489E-003;
2.412166666666667E+009;1.783656924962997E-001;-2.737881615757942E-003;5.163982859812677E-004;2.562515903264284E-003;
2.412333333333334E+009;1.784053295850754E-001;-5.213736556470394E-003;6.373233045451343E-004;2.433482324704528E-003;
2.412500000000000E+009;1.788323372602463E-001;-7.726331241428852E-003;6.151007837615907E-004;2.419118070974946E-003;
2.412666666666667E+009;1.795435398817062E-001;-1.023772452026606E-002;6.249858997762203E-004;2.499408088624477E-003;
2.412833333333334E+009;1.801124811172485E-001;-1.264276634901762E-002;3.992986166849732E-004;2.375074429437518E-003;
2.413000000000000E+009;1.808485835790634E-001;-1.506847050040960E-002;4.835192521568388E-004;2.394484123215079E-003;
2.413166666666667E+009;1.816521883010864E-001;-1.719710230827332E-002;5.344382952898741E-004;2.249475568532944E-003;
2.413333333333334E+009;1.827643215656281E-001;-1.948846690356731E-002;4.723315651062876E-004;2.492314670234919E-003;
2.413500000000000E+009;1.834641695022583E-001;-2.182834409177303E-002;5.488274036906660E-004;2.509826095774770E-003;
2.413666666666667E+009;1.846805661916733E-001;-2.411264739930630E-002;5.735664744861424E-004;2.619852079078555E-003;
2.413833333333334E+009;1.858830004930496E-001;-2.604922465980053E-002;5.229613743722439E-004;2.563095651566982E-003;
2.414000000000000E+009;1.868669688701630E-001;-2.805739827454090E-002;7.026155944913626E-004;2.852824749425054E-003;
2.414166666666667E+009;1.881765574216843E-001;-2.970726788043976E-002;8.009078446775675E-004;2.966995583847165E-003;
2.414333333333334E+009;1.892748475074768E-001;-3.177025541663170E-002;9.272489696741104E-004;2.869478194043040E-003;
2.414500000000000E+009;1.904937326908112E-001;-3.327341377735138E-002;1.040355535224080E-003;2.900417195633054E-003;
2.414666666666667E+009;1.917242705821991E-001;-3.477307036519051E-002;1.144628622569144E-003;2.914372133091092E-003;
2.414833333333334E+009;1.927900463342667E-001;-3.610008209943771E-002;1.334122149273753E-003;2.838287735357881E-003;
2.415000000000000E+009;1.940194070339203E-001;-3.744036704301834E-002;1.447468646802008E-003;2.802241593599320E-003;
2.415166666666667E+009;1.952643692493439E-001;-3.846340999007225E-002;1.627002609893680E-003;2.806256758049130E-003;
2.415333333333334E+009;1.964650303125382E-001;-3.948739171028137E-002;1.724126865155995E-003;2.709235996007919E-003;
2.415500000000000E+009;1.974030435085297E-001;-4.012569412589073E-002;1.729922601953149E-003;2.625211142003536E-003;
2.415666666666667E+009;1.985297203063965E-001;-4.075582325458527E-002;1.743771135807037E-003;2.456667134538293E-003;
2.415833333333334E+009;1.993044614791870E-001;-4.140273481607437E-002;1.977445324882865E-003;2.386417239904404E-003;
2.416000000000000E+009;2.000019401311874E-001;-4.207946360111237E-002;1.992254517972469E-003;2.515513682737947E-003;
2.416166666666667E+009;2.007677555084229E-001;-4.255523905158043E-002;1.962041482329369E-003;2.383791841566563E-003;
2.416333333333334E+009;2.014530748128891E-001;-4.275401309132576E-002;2.192982472479343E-003;2.181845251470804E-003;
2.416500000000000E+009;2.019071578979492E-001;-4.307123273611069E-002;2.056616358458996E-003;2.181010553613305E-003;
2.416666666666667E+009;2.022563219070435E-001;-4.343811422586441E-002;2.124459948390722E-003;2.186119090765715E-003;
2.416833333333334E+009;2.024194300174713E-001;-4.327210038900375E-002;2.110376022756100E-003;2.131920773535967E-003;
2.417000000000000E+009;2.024758756160736E-001;-4.341747611761093E-002;2.302177017554641E-003;2.206604927778244E-003;
2.417166666666667E+009;2.022677212953568E-001;-4.323980584740639E-002;2.082731341943145E-003;2.113786991685629E-003;
2.417333333333334E+009;2.020596563816071E-001;-4.304074868559837E-002;2.391109010204673E-003;1.977692125365138E-003;
2.417500000000000E+009;2.017876654863358E-001;-4.300938546657562E-002;2.476222114637494E-003;2.008687471970916E-003;
2.417666666666667E+009;2.011843174695969E-001;-4.278773441910744E-002;2.498529152944684E-003;1.926649827510119E-003;
2.417833333333334E+009;2.007951438426971E-001;-4.256946220993996E-002;2.510089660063386E-003;1.980374101549387E-003;
2.418000000000000E+009;2.001173943281174E-001;-4.222254082560539E-002;2.659636549651623E-003;1.953088678419590E-003;
2.418166666666667E+009;1.993272006511688E-001;-4.220402985811234E-002;2.822880866006017E-003;1.795126358047128E-003;
2.418333333333334E+009;1.983184665441513E-001;-4.198158904910088E-002;2.964102663099766E-003;1.703935791738331E-003;
2.418500000000000E+009;1.974167376756668E-001;-4.201439023017883E-002;2.897236263379455E-003;1.664542243815959E-003;
2.418666666666667E+009;1.964078247547150E-001;-4.190740361809731E-002;2.972787711769342E-003;1.728537376038730E-003;
2.418833333333334E+009;1.951114684343338E-001;-4.212035238742828E-002;3.234230447560549E-003;1.602059230208397E-003;
2.419000000000000E+009;1.938145011663437E-001;-4.233839735388756E-002;3.110365476459265E-003;1.271956483833492E-003;
2.419166666666667E+009;1.924865692853928E-001;-4.249968379735947E-002;3.330346662551165E-003;1.245107850991190E-003;
2.419333333333334E+009;1.911760568618774E-001;-4.308063164353371E-002;3.282226156443358E-003;1.106220530346036E-003;
2.419500000000000E+009;1.896785050630570E-001;-4.347263276576996E-002;3.324934281408787E-003;1.119312597438693E-003;
2.419666666666667E+009;1.879358142614365E-001;-4.423903301358223E-002;3.371107624843717E-003;9.444979950785637E-004;
2.419833333333334E+009;1.863575875759125E-001;-4.494638741016388E-002;3.488810500130057E-003;7.167813600972295E-004;
2.420000000000000E+009;1.848360449075699E-001;-4.580383002758026E-002;3.477803198620677E-003;6.912699318490923E-004;
2.420166666666667E+009;1.832555532455444E-001;-4.668088257312775E-002;3.469284391030669E-003;5.737885367125273E-004;
2.420333333333334E+009;1.815305501222611E-001;-4.806246608495712E-002;3.583777463063598E-003;4.529984435066581E-004;
2.420500000000000E+009;1.798966526985169E-001;-4.922092705965042E-002;3.409003606066108E-003;3.485284396447241E-004;
2.420666666666667E+009;1.783107221126556E-001;-5.038081482052803E-002;3.477401798591018E-003;2.184447512263432E-004;
2.420833333333334E+009;1.765751540660858E-001;-5.186739563941956E-002;3.527753287926316E-003;-8.693148993188515E-005;
2.421000000000000E+009;1.752002090215683E-001;-5.346846580505371E-002;3.695220686495304E-003;-9.417883120477200E-005;
2.421166666666667E+009;1.737286746501923E-001;-5.514410510659218E-002;3.601684002205730E-003;-2.860004606191069E-004;
2.421333333333334E+009;1.721312850713730E-001;-5.667183548212051E-002;3.568544983863831E-003;-3.819150442723185E-004;
2.421500000000000E+009;1.708955764770508E-001;-5.852132290601730E-002;3.479346167296171E-003;-5.101553397253156E-004;
2.421666666666667E+009;1.696206778287888E-001;-6.043050438165665E-002;3.520854050293565E-003;-7.763378089293838E-004;
2.421833333333334E+009;1.685511767864227E-001;-6.221886351704598E-002;3.351866034790874E-003;-9.039758006110787E-004;
2.422000000000000E+009;1.672761291265488E-001;-6.424766033887863E-002;3.347925143316388E-003;-9.478239226154983E-004;
2.422166666666667E+009;1.665154695510864E-001;-6.626479327678680E-002;3.244705963879824E-003;-1.251501496881247E-003;
2.422333333333334E+009;1.654580980539322E-001;-6.847398728132248E-002;3.199513768777251E-003;-1.126608811318874E-003;
2.422500000000000E+009;1.646805852651596E-001;-7.046032696962357E-002;2.986102830618620E-003;-1.447713235393167E-003;
2.422666666666667E+009;1.639918982982636E-001;-7.236000150442123E-002;2.877594670280814E-003;-1.485220389440656E-003;
2.422833333333334E+009;1.635822951793671E-001;-7.430438697338104E-002;2.923250431194902E-003;-1.655366853810847E-003;
2.423000000000000E+009;1.628767699003220E-001;-7.650640606880188E-002;2.796174492686987E-003;-1.805833424441516E-003;
2.423166666666667E+009;1.626933515071869E-001;-7.862394303083420E-002;2.599366474896669E-003;-1.834489172324538E-003;
2.423333333333334E+009;1.625509262084961E-001;-8.058220893144608E-002;2.278776140883565E-003;-1.951589947566390E-003;
2.423500000000000E+009;1.624109894037247E-001;-8.233039081096649E-002;2.199864480644465E-003;-1.842763856984675E-003;
2.423666666666667E+009;1.625238806009293E-001;-8.432698994874954E-002;2.003452740609646E-003;-1.868102001026273E-003;
2.423833333333334E+009;1.624822169542313E-001;-8.595994859933853E-002;2.022774890065193E-003;-2.001674147322774E-003;
2.424000000000000E+009;1.625401377677918E-001;-8.774562925100327E-002;1.925917342305183E-003;-1.965598668903112E-003;
2.424166666666667E+009;1.627361029386520E-001;-8.949723094701767E-002;1.659962465055287E-003;-2.043197629973292E-003;
2.424333333333334E+009;1.630014777183533E-001;-9.104479849338532E-002;1.636445173062384E-003;-2.042668173089624E-003;
2.424500000000000E+009;1.634262353181839E-001;-9.273494780063629E-002;1.656487467698753E-003;-1.982130575925112E-003;
2.424666666666667E+009;1.635973304510117E-001;-9.403438121080399E-002;1.507388078607619E-003;-2.101137535646558E-003;
2.424833333333334E+009;1.641777604818344E-001;-9.537507593631744E-002;1.438907114788890E-003;-1.864427351392806E-003;
2.425000000000000E+009;1.646315008401871E-001;-9.659953415393829E-002;1.400063047185540E-003;-1.935958978720009E-003;
2.425166666666667E+009;1.648841500282288E-001;-9.763709455728531E-002;1.247043139301240E-003;-1.892953412607312E-003;
2.425333333333334E+009;1.652486324310303E-001;-9.873262792825699E-002;1.254525617696345E-003;-2.057045232504606E-003;
2.425500000000000E+009;1.656481325626373E-001;-9.958651661872864E-002;1.180369872599840E-003;-1.923292991705239E-003;
2.425666666666667E+009;1.662742495536804E-001;-1.002533882856369E-001;1.019068295136094E-003;-1.950855134055018E-003;
2.425833333333334E+009;1.664656549692154E-001;-1.012464687228203E-001;1.081896596588194E-003;-1.999825239181519E-003;
2.426000000000000E+009;1.668953299522400E-001;-1.014552488923073E-001;9.466101182624698E-004;-1.877743517979980E-003;
2.426166666666667E+009;1.673747301101685E-001;-1.020909324288368E-001;9.451082441955805E-004;-1.902264426462352E-003;
2.426333333333334E+009;1.675123125314713E-001;-1.025561392307282E-001;6.902595050632954E-004;-1.804613159038127E-003;
2.426500000000000E+009;1.677803695201874E-001;-1.027762442827225E-001;7.520451326854527E-004;-1.844460959546268E-003;
2.426666666666667E+009;1.680214107036591E-001;-1.030870601534843E-001;7.357448339462280E-004;-1.638739486224949E-003;
2.426833333333334E+009;1.683581173419952E-001;-1.033500656485558E-001;7.027505780570209E-004;-1.612825668416917E-003;
2.427000000000000E+009;1.683071851730347E-001;-1.035597696900368E-001;5.749859265051782E-004;-1.615424524061382E-003;
2.427166666666667E+009;1.683678776025772E-001;-1.036116331815720E-001;4.665333253797144E-004;-1.714240410365164E-003;
2.427333333333334E+009;1.683236062526703E-001;-1.037229225039482E-001;6.029090145602822E-004;-1.435453188605607E-003;
2.427500000000000E+009;1.678978651762009E-001;-1.038837954401970E-001;6.494911503978074E-004;-1.409998629242182E-003;
2.427666666666667E+009;1.676818132400513E-001;-1.039965301752091E-001;5.417558713816106E-004;-1.445830566808581E-003;
2.427833333333334E+009;1.672694236040115E-001;-1.041335836052895E-001;4.629852483049035E-004;-1.469422597438097E-003;
