# Version 1.00
#
freq[Hz];re:Trc1_S11;im:Trc1_S11;re:Trc2_S21;im:Trc2_S21;
2.400000000000000E+009;1.580413877964020E-001;1.122220903635025E-001;3.213137155398727E-003;-2.803111216053367E-003;
2.400166666666667E+009;1.575129777193070E-001;1.099597215652466E-001;3.171076066792011E-003;-3.124689217656851E-003;
2.400333333333334E+009;1.570840775966644E-001;1.078736931085587E-001;2.862839726731181E-003;-3.236619289964438E-003;
2.400500000000000E+009;1.566291749477387E-001;1.053335592150688E-001;2.732069231569767E-003;-3.468188690021634E-003;
2.400666666666667E+009;1.564815789461136E-001;1.029447466135025E-001;2.633347641676664E-003;-3.505097934976220E-003;
2.400833333333334E+009;1.562058627605438E-001;1.000751405954361E-001;2.517793793231249E-003;-3.611872205510736E-003;
2.401000000000000E+009;1.560558825731278E-001;9.714248776435852E-002;2.216743072494865E-003;-3.769855014979839E-003;
2.401166666666667E+009;1.555746644735336E-001;9.426958113908768E-002;2.254859311506152E-003;-3.816635813564062E-003;
2.401333333333334E+009;1.555548459291458E-001;9.136963635683060E-002;2.139658434316516E-003;-3.858370240777731E-003;
2.401500000000000E+009;1.557092815637589E-001;8.845634013414383E-002;2.011385047808290E-003;-4.061989486217499E-003;
2.401666666666667E+009;1.556178778409958E-001;8.538073301315308E-002;2.042530337348580E-003;-4.095989745110273E-003;
2.401833333333334E+009;1.559449434280396E-001;8.244650065898895E-002;1.892601605504751E-003;-4.314740188419819E-003;
2.402000000000000E+009;1.563708186149597E-001;7.935264706611633E-002;1.720204832963646E-003;-4.332763608545065E-003;
2.402166666666667E+009;1.568931788206101E-001;7.668679207563400E-002;1.635431894101203E-003;-4.410732071846724E-003;
2.402333333333334E+009;1.576829999685288E-001;7.355125993490219E-002;1.597029971890152E-003;-4.573986865580082E-003;
2.402500000000000E+009;1.586640477180481E-001;7.085277140140533E-002;1.461256062611938E-003;-4.842500202357769E-003;
2.402666666666667E+009;1.596053838729858E-001;6.824148446321487E-002;1.062764436937869E-003;-4.899816587567329E-003;
2.402833333333334E+009;1.606833785772324E-001;6.527104973793030E-002;9.280440863221884E-004;-5.140772089362145E-003;
2.403000000000000E+009;1.620362699031830E-001;6.250853836536408E-002;6.511262035928667E-004;-5.327240098267794E-003;
2.403166666666667E+009;1.637066602706909E-001;5.987801030278206E-002;4.742273304145783E-004;-5.477322731167078E-003;
2.403333333333334E+009;1.649845391511917E-001;5.731341615319252E-002;1.730288058752194E-004;-5.442157853394747E-003;
2.403500000000000E+009;1.668206006288528E-001;5.497715994715691E-002;-2.676199073903263E-004;-5.615637172013521E-003;
2.403666666666667E+009;1.683864146471024E-001;5.266365408897400E-002;-6.427108310163021E-004;-5.532443523406982E-003;
2.403833333333334E+009;1.701375395059586E-001;5.029186606407166E-002;-9.960217867046595E-004;-5.526283290237188E-003;
2.404000000000000E+009;1.715700775384903E-001;4.804293811321259E-002;-1.430845353752375E-003;-5.275575444102287E-003;
2.404166666666667E+009;1.735924482345581E-001;4.638990014791489E-002;-1.589480438269675E-003;-5.148632917553186E-003;
2.404333333333334E+009;1.752698868513107E-001;4.430662468075752E-002;-2.021789085119963E-003;-5.167460534721613E-003;
2.404500000000000E+009;1.770483106374741E-001;4.258654266595841E-002;-2.474386245012283E-003;-4.874532110989094E-003;
2.404666666666667E+009;1.788299679756165E-001;4.126310721039772E-002;-2.564672846347094E-003;-4.897809121757746E-003;
2.404833333333334E+009;1.805719137191773E-001;3.971938788890839E-002;-2.701199846342206E-003;-4.465430509299040E-003;
2.405000000000000E+009;1.822927594184876E-001;3.881288319826126E-002;-2.875118982046843E-003;-4.296088125556707E-003;
2.405166666666667E+009;1.839606314897537E-001;3.778027743101120E-002;-3.092080587521195E-003;-4.009133204817772E-003;
2.405333333333334E+009;1.856435239315033E-001;3.699898347258568E-002;-3.237778320908546E-003;-3.875444876030088E-003;
2.405500000000000E+009;1.873296052217484E-001;3.636499866843224E-002;-3.168216906487942E-003;-3.607386257499456E-003;
2.405666666666667E+009;1.888001859188080E-001;3.593736886978149E-002;-3.270477289333940E-003;-3.482471453025937E-003;
2.405833333333334E+009;1.904899626970291E-001;3.558248281478882E-002;-3.372451756149530E-003;-3.369896207004786E-003;
2.406000000000000E+009;1.917351335287094E-001;3.531229496002197E-002;-3.442194778472185E-003;-3.197401529178023E-003;
2.406166666666667E+009;1.929604113101959E-001;3.510951250791550E-002;-3.409149125218391E-003;-2.960887039080262E-003;
2.406333333333334E+009;1.943948119878769E-001;3.517426550388336E-002;-3.478732192888856E-003;-2.802068134769797E-003;
2.406500000000000E+009;1.954025626182556E-001;3.529965132474899E-002;-3.485067514702678E-003;-2.762346761301160E-003;
2.406666666666667E+009;1.963922381401062E-001;3.547487035393715E-002;-3.678795881569386E-003;-2.525523770600557E-003;
2.406833333333334E+009;1.973818242549896E-001;3.568762913346291E-002;-3.585090860724449E-003;-2.201167866587639E-003;
2.407000000000000E+009;1.979410797357559E-001;3.602474555373192E-002;-3.717510960996151E-003;-2.087061991915107E-003;
2.407166666666667E+009;1.986537724733353E-001;3.611833229660988E-002;-3.712711855769157E-003;-1.965677132830024E-003;
2.407333333333334E+009;1.990104168653488E-001;3.641729801893234E-002;-3.725043497979641E-003;-1.865725382231176E-003;
2.407500000000000E+009;1.992896944284439E-001;3.688741102814674E-002;-3.705525305122137E-003;-1.704627415165305E-003;
2.407666666666667E+009;1.994115263223648E-001;3.704454004764557E-002;-3.782869549468160E-003;-1.742186024785042E-003;
2.407833333333334E+009;1.994434595108032E-001;3.733353689312935E-002;-3.508214605972171E-003;-1.475156983360648E-003;
2.408000000000000E+009;1.994953900575638E-001;3.757589310407639E-002;-3.751178737729788E-003;-1.506656873971224E-003;
2.408166666666667E+009;1.991725862026215E-001;3.751526772975922E-002;-3.708119504153729E-003;-1.268971594981849E-003;
2.408333333333334E+009;1.988227218389511E-001;3.746245428919792E-002;-3.513012314215303E-003;-1.011265208944678E-003;
2.408500000000000E+009;1.981976479291916E-001;3.751270473003388E-002;-3.601229516789317E-003;-9.716467466205359E-004;
2.408666666666667E+009;1.977555155754089E-001;3.739403560757637E-002;-3.509984118863940E-003;-9.560118778608739E-004;
2.408833333333334E+009;1.971665620803833E-001;3.711029142141342E-002;-3.435802878811956E-003;-7.710835780017078E-004;
2.409000000000000E+009;1.961323171854019E-001;3.661321476101875E-002;-3.275765106081963E-003;-6.467204075306654E-004;
2.409166666666667E+009;1.952513456344605E-001;3.599721193313599E-002;-3.208930836990476E-003;-6.256184424273670E-004;
2.409333333333334E+009;1.942027509212494E-001;3.555090725421906E-002;-3.087633755058050E-003;-5.713501013815403E-004;
2.409500000000000E+009;1.930723339319229E-001;3.449938446283341E-002;-2.988034626469016E-003;-5.974253872409463E-004;
2.409666666666667E+009;1.918633878231049E-001;3.344260528683662E-002;-3.098268061876297E-003;-4.422375350259244E-004;
2.409833333333334E+009;1.908093094825745E-001;3.236096724867821E-002;-3.024559002369642E-003;-6.076575373299420E-004;
2.410000000000000E+009;1.895438581705093E-001;3.098547831177712E-002;-3.025647718459368E-003;-6.445115432143211E-004;
2.410166666666667E+009;1.882453560829163E-001;2.957381121814251E-002;-2.832749625667930E-003;-7.750407094135881E-004;
2.410333333333334E+009;1.870680302381516E-001;2.795176580548286E-002;-3.028288716450334E-003;-6.231860606931150E-004;
2.410500000000000E+009;1.858745217323303E-001;2.628352493047714E-002;-2.901235362514854E-003;-8.513251668773592E-004;
2.410666666666667E+009;1.847424954175949E-001;2.425800263881683E-002;-3.017322858795524E-003;-6.772244814783335E-004;
2.410833333333334E+009;1.837943643331528E-001;2.219899743795395E-002;-3.106474643573165E-003;-7.263213046826422E-004;
2.411000000000000E+009;1.826149672269821E-001;2.004737779498100E-002;-3.172953845933080E-003;-7.083662785589695E-004;
2.411166666666667E+009;1.816673725843430E-001;1.801476627588272E-002;-3.245418192818761E-003;-5.558441043831408E-004;
2.411333333333334E+009;1.808935105800629E-001;1.546816155314446E-002;-3.355302149429917E-003;-7.134030456654728E-004;
2.411500000000000E+009;1.800916045904160E-001;1.313453353941441E-002;-3.404631977900863E-003;-5.139142740517855E-004;
2.411666666666667E+009;1.795949041843414E-001;1.079715695232153E-002;-3.577498020604253E-003;-6.336441147141159E-004;
2.411833333333334E+009;1.789157241582871E-001;8.439525961875916E-003;-3.495325800031424E-003;-5.875321803614497E-004;
2.412000000000000E+009;1.786280572414398E-001;5.696041975170374E-003;-3.442558692768216E-003;-4.375033604446799E-004;
2.412166666666667E+009;1.783571839332581E-001;3.129680640995503E-003;-3.500931663438678E-003;-4.148262378294021E-004;
2.412333333333334E+009;1.782920658588409E-001;4.701588186435401E-004;-3.659151028841734E-003;-2.127414045389742E-004;
2.412500000000000E+009;1.784304529428482E-001;-2.095593605190516E-003;-3.615542547777295E-003;-2.183545875595883E-004;
2.412666666666667E+009;1.785683333873749E-001;-4.843422677367926E-003;-3.720002947375178E-003;-2.763074007816613E-004;
2.412833333333334E+009;1.792313009500504E-001;-7.446700707077980E-003;-3.946300595998764E-003;-1.974208862520754E-004;
2.413000000000000E+009;1.796579062938690E-001;-1.002483442425728E-002;-3.971514292061329E-003;-7.007594831520692E-005;
2.413166666666667E+009;1.801618635654450E-001;-1.268459577113390E-002;-3.942200914025307E-003;-2.119985765602905E-005;
2.413333333333334E+009;1.808731406927109E-001;-1.524324528872967E-002;-3.981526941061020E-003;1.398594758938998E-004;
2.413500000000000E+009;1.819240003824234E-001;-1.772377081215382E-002;-4.201975651085377E-003;2.139626158168539E-004;
2.413666666666667E+009;1.828285157680512E-001;-2.035993523895741E-002;-4.509058315306902E-003;3.608783881645650E-004;
2.413833333333334E+009;1.838986277580261E-001;-2.266045100986958E-002;-4.349821247160435E-003;5.992198712192476E-004;
2.414000000000000E+009;1.848582029342651E-001;-2.490989305078983E-002;-4.530069418251514E-003;7.191396434791386E-004;
2.414166666666667E+009;1.863335967063904E-001;-2.697853744029999E-002;-4.610286094248295E-003;1.059783971868455E-003;
2.414333333333334E+009;1.873714178800583E-001;-2.949465997517109E-002;-4.517477471381426E-003;1.323257922194898E-003;
2.414500000000000E+009;1.886558830738068E-001;-3.114849701523781E-002;-4.542225971817970E-003;1.448987983167172E-003;
2.414666666666667E+009;1.899315267801285E-001;-3.298165276646614E-002;-4.353812430053949E-003;1.842782716266811E-003;
2.414833333333334E+009;1.911505758762360E-001;-3.461377322673798E-002;-4.400487523525953E-003;2.018493833020330E-003;
2.415000000000000E+009;1.924418061971664E-001;-3.617583587765694E-002;-4.473759792745113E-003;2.346896100789309E-003;
2.415166666666667E+009;1.937941908836365E-001;-3.755688294768333E-002;-4.370783455669880E-003;2.384506398811936E-003;
2.415333333333334E+009;1.952483803033829E-001;-3.881449252367020E-002;-4.220588598400354E-003;2.627051202580333E-003;
2.415500000000000E+009;1.965451538562775E-001;-3.981292620301247E-002;-4.136607050895691E-003;2.872778335586190E-003;
2.415666666666667E+009;1.978991478681564E-001;-4.084871336817741E-002;-4.053762182593346E-003;2.882683183997870E-003;
2.415833333333334E+009;1.990635842084885E-001;-4.152856767177582E-002;-4.043434746563435E-003;3.119038650766015E-003;
2.416000000000000E+009;2.000396102666855E-001;-4.234465956687927E-002;-3.739241044968367E-003;3.240873105823994E-003;
2.416166666666667E+009;2.010768651962280E-001;-4.309410601854324E-002;-3.836721414700151E-003;3.578633069992065E-003;
2.416333333333334E+009;2.019832432270050E-001;-4.343793913722038E-002;-3.713830141350627E-003;3.710655961185694E-003;
2.416500000000000E+009;2.027712017297745E-001;-4.370152577757835E-002;-3.439246444031596E-003;3.776480909436941E-003;
2.416666666666667E+009;2.034830302000046E-001;-4.406052082777023E-002;-3.160858061164618E-003;3.882547840476036E-003;
2.416833333333334E+009;2.039304375648499E-001;-4.412455856800079E-002;-3.078822745010257E-003;3.941349219530821E-003;
2.417000000000000E+009;2.045059204101563E-001;-4.417400062084198E-002;-3.014553338289261E-003;4.242222290486097E-003;
2.417166666666667E+009;2.044762223958969E-001;-4.395370185375214E-002;-2.764135133475065E-003;4.238940775394440E-003;
2.417333333333334E+009;2.046191394329071E-001;-4.373429715633392E-002;-2.636412624269724E-003;4.331544041633606E-003;
2.417500000000000E+009;2.046673148870468E-001;-4.366451129317284E-002;-2.425738144665957E-003;4.379539750516415E-003;
2.417666666666667E+009;2.043794542551041E-001;-4.326342791318893E-002;-2.253077691420913E-003;4.435307346284390E-003;
2.417833333333334E+009;2.042577415704727E-001;-4.294225573539734E-002;-2.195973880589008E-003;4.502196796238422E-003;
2.418000000000000E+009;2.038778513669968E-001;-4.245783388614655E-002;-2.156239934265614E-003;4.698190372437239E-003;
2.418166666666667E+009;2.032507359981537E-001;-4.210938140749931E-002;-1.936538610607386E-003;4.722130019217730E-003;
2.418333333333334E+009;2.026064395904541E-001;-4.177829995751381E-002;-1.707165385596454E-003;4.837380722165108E-003;
2.418500000000000E+009;2.016700953245163E-001;-4.156854376196861E-002;-1.695806160569191E-003;4.918866790831089E-003;
2.418666666666667E+009;2.009592354297638E-001;-4.108349233865738E-002;-1.444069319404662E-003;5.002506077289581E-003;
2.418833333333334E+009;1.998830586671829E-001;-4.097327962517738E-002;-1.389173441566527E-003;5.077756941318512E-003;
2.419000000000000E+009;1.987792253494263E-001;-4.080088436603546E-002;-1.059546833857894E-003;5.193402059376240E-003;
2.419166666666667E+009;1.974360495805740E-001;-4.079833254218102E-002;-9.110905812121928E-004;5.262200254946947E-003;
2.419333333333334E+009;1.960625648498535E-001;-4.096154868602753E-002;-7.838572491891682E-004;5.318996030837297E-003;
2.419500000000000E+009;1.945266574621201E-001;-4.105360805988312E-002;-4.748729115817696E-004;5.325763951987028E-003;
2.419666666666667E+009;1.929243803024292E-001;-4.161632806062698E-002;-1.400570326950401E-004;5.501941777765751E-003;
2.419833333333334E+009;1.912434995174408E-001;-4.195300862193108E-002;-3.746686343220063E-005;5.534720141440630E-003;
2.420000000000000E+009;1.895705610513687E-001;-4.269850626587868E-002;4.411349364090711E-004;5.309958010911942E-003;
2.420166666666667E+009;1.878033280372620E-001;-4.320076107978821E-002;6.124405190348625E-004;5.294903647154570E-003;
2.420333333333334E+009;1.859966516494751E-001;-4.418893158435822E-002;8.878597291186452E-004;5.122986622154713E-003;
2.420500000000000E+009;1.841449439525604E-001;-4.516961053013802E-002;1.083431881852448E-003;5.011155270040035E-003;
2.420666666666667E+009;1.823075115680695E-001;-4.604573920369148E-002;1.222103368490934E-003;4.889256786555052E-003;
2.420833333333334E+009;1.804908514022827E-001;-4.747729748487473E-002;1.357618020847440E-003;4.639047663658857E-003;
2.421000000000000E+009;1.787707209587097E-001;-4.884203150868416E-002;1.606812700629234E-003;4.593786317855120E-003;
2.421166666666667E+009;1.769838780164719E-001;-5.011517554521561E-002;1.698111183941364E-003;4.406709223985672E-003;
2.421333333333334E+009;1.751312166452408E-001;-5.168984457850456E-002;1.705745351500809E-003;4.281887784600258E-003;
2.421500000000000E+009;1.735115945339203E-001;-5.366891622543335E-002;1.786761684343219E-003;4.180051852017641E-003;
2.421666666666667E+009;1.719202101230621E-001;-5.552780628204346E-002;1.907868310809135E-003;4.050532821565867E-003;
2.421833333333334E+009;1.704681068658829E-001;-5.732057243585587E-002;2.055450342595577E-003;3.984676208347082E-003;
2.422000000000000E+009;1.690148562192917E-001;-5.918808281421661E-002;1.932543586008251E-003;4.043505992740393E-003;
2.422166666666667E+009;1.678749918937683E-001;-6.146844848990440E-002;2.149356994777918E-003;3.800394246354699E-003;
2.422333333333334E+009;1.665951907634735E-001;-6.355200707912445E-002;2.385697094723582E-003;3.990201745182276E-003;
2.422500000000000E+009;1.653881520032883E-001;-6.549088656902313E-002;2.239902969449759E-003;3.703668713569641E-003;
2.422666666666667E+009;1.646584421396256E-001;-6.780578941106796E-002;2.474597422406077E-003;3.607406280934811E-003;
2.422833333333334E+009;1.637231856584549E-001;-7.013068348169327E-002;2.455738838762045E-003;3.696129657328129E-003;
2.423000000000000E+009;1.630805432796478E-001;-7.232305407524109E-002;2.645010827109218E-003;3.551340894773603E-003;
2.423166666666667E+009;1.624872237443924E-001;-7.451438903808594E-002;2.641645492985845E-003;3.373346058651805E-003;
2.423333333333334E+009;1.618751734495163E-001;-7.677184790372849E-002;2.895785262808204E-003;3.376616630703211E-003;
2.423500000000000E+009;1.615264266729355E-001;-7.872026413679123E-002;3.176201600581408E-003;3.234369447454810E-003;
2.423666666666667E+009;1.617139279842377E-001;-8.099982887506485E-002;3.091284539550543E-003;3.069978905841708E-003;
2.423833333333334E+009;1.614174097776413E-001;-8.295336365699768E-002;3.210733877494931E-003;2.804405521601439E-003;
2.424000000000000E+009;1.614770293235779E-001;-8.514286577701569E-002;3.249984001740813E-003;2.803196664899588E-003;
2.424166666666667E+009;1.615063101053238E-001;-8.691093325614929E-002;3.345009405165911E-003;2.635338576510549E-003;
2.424333333333334E+009;1.619388908147812E-001;-8.874212205410004E-002;3.287346102297306E-003;2.556222490966320E-003;
2.424500000000000E+009;1.621302813291550E-001;-9.085737913846970E-002;3.262239973992109E-003;2.213466214016080E-003;
2.424666666666667E+009;1.625904589891434E-001;-9.245442599058151E-002;3.487453097477555E-003;2.101772231981158E-003;
2.424833333333334E+009;1.632357984781265E-001;-9.402109682559967E-002;3.311829874292016E-003;2.120694611221552E-003;
2.425000000000000E+009;1.636617332696915E-001;-9.555446356534958E-002;3.252726513892412E-003;1.885908190160990E-003;
2.425166666666667E+009;1.642215847969055E-001;-9.691616147756577E-002;3.318830160424113E-003;1.675887615419924E-003;
2.425333333333334E+009;1.646849364042282E-001;-9.822833538055420E-002;3.348468104377389E-003;1.700790016911924E-003;
2.425500000000000E+009;1.654798239469528E-001;-9.945663809776306E-002;3.280148608610034E-003;1.596129615791142E-003;
2.425666666666667E+009;1.661078035831451E-001;-1.003974974155426E-001;3.147439099848270E-003;1.381793990731239E-003;
2.425833333333334E+009;1.665767282247543E-001;-1.014459356665611E-001;3.095826134085655E-003;1.331160077825189E-003;
2.426000000000000E+009;1.673359274864197E-001;-1.020980924367905E-001;3.268314991146326E-003;1.336628338322043E-003;
2.426166666666667E+009;1.680610775947571E-001;-1.027151718735695E-001;2.991605317220092E-003;1.313773798756301E-003;
2.426333333333334E+009;1.683934330940247E-001;-1.033892035484314E-001;3.092162078246474E-003;1.304793055169284E-003;
2.426500000000000E+009;1.692450344562531E-001;-1.039330288767815E-001;3.142469329759479E-003;1.236339681781828E-003;
2.426666666666667E+009;1.697955876588821E-001;-1.042210534214973E-001;3.094956278800964E-003;1.168561168015003E-003;
2.426833333333334E+009;1.704324930906296E-001;-1.046257764101028E-001;2.992850961163640E-003;1.191893708892167E-003;
2.427000000000000E+009;1.706877499818802E-001;-1.048756390810013E-001;3.071979153901339E-003;1.173739670775831E-003;
2.427166666666667E+009;1.711010932922363E-001;-1.050506234169006E-001;3.025257959961891E-003;1.135202590376139E-003;
2.427333333333334E+009;1.713684499263763E-001;-1.052646115422249E-001;2.962566912174225E-003;9.131120750680566E-004;
2.427500000000000E+009;1.714988648891449E-001;-1.054198592901230E-001;3.023136639967561E-003;8.803955861367285E-004;
2.427666666666667E+009;1.715091168880463E-001;-1.053313910961151E-001;3.082388779148459E-003;8.384988759644330E-004;
