# Version 1.00
#
freq[Hz];re:Trc1_S11;im:Trc1_S11;re:Trc2_S21;im:Trc2_S21;
2.400000000000000E+009;1.580246686935425E-001;1.120593324303627E-001;3.150837263092399E-003;-2.970315981656313E-003;
2.400166666666667E+009;1.573137640953064E-001;1.098663061857224E-001;3.023324767127633E-003;-3.138455562293530E-003;
2.400333333333334E+009;1.570494920015335E-001;1.077149584889412E-001;2.999913645908237E-003;-3.243723651394248E-003;
2.400500000000000E+009;1.568134278059006E-001;1.050826087594032E-001;2.681604586541653E-003;-3.350495593622327E-003;
2.400666666666667E+009;1.563186049461365E-001;1.026560366153717E-001;2.632025629281998E-003;-3.429749514907599E-003;
2.400833333333334E+009;1.561191529035568E-001;9.968646615743637E-002;2.588184550404549E-003;-3.613504115492106E-003;
2.401000000000000E+009;1.558065563440323E-001;9.684524685144424E-002;2.176495268940926E-003;-3.698946675285697E-003;
2.401166666666667E+009;1.554006338119507E-001;9.414504468441010E-002;2.283899346366525E-003;-3.703502006828785E-003;
2.401333333333334E+009;1.556034237146378E-001;9.121485799551010E-002;1.984105445444584E-003;-3.882819321006537E-003;
2.401500000000000E+009;1.555691957473755E-001;8.829425275325775E-002;2.076364587992430E-003;-4.005189985036850E-003;
2.401666666666667E+009;1.556317657232285E-001;8.527947217226028E-002;1.911225612275302E-003;-4.117549397051334E-003;
2.401833333333334E+009;1.558085978031158E-001;8.225630223751068E-002;1.908143400214613E-003;-4.174710251390934E-003;
2.402000000000000E+009;1.563807427883148E-001;7.940306514501572E-002;1.933148829266429E-003;-4.321987740695477E-003;
2.402166666666667E+009;1.570236533880234E-001;7.662897557020187E-002;1.676481682807207E-003;-4.538984037935734E-003;
2.402333333333334E+009;1.576735675334930E-001;7.347171008586884E-002;1.563294092193246E-003;-4.688024986535311E-003;
2.402500000000000E+009;1.584704071283341E-001;7.063128054141998E-002;1.296182395890355E-003;-5.019261967390776E-003;
2.402666666666667E+009;1.594290435314179E-001;6.796116381883621E-002;1.072660204954445E-003;-5.080152768641710E-003;
2.402833333333334E+009;1.605908870697022E-001;6.514646857976914E-002;9.995290311053395E-004;-5.017138551920652E-003;
2.403000000000000E+009;1.618841439485550E-001;6.247513741254807E-002;5.068254540674388E-004;-5.257254000753164E-003;
2.403166666666667E+009;1.635683327913284E-001;5.976641923189163E-002;3.597530594561249E-004;-5.349579267203808E-003;
2.403333333333334E+009;1.648448705673218E-001;5.723809823393822E-002;1.128625153796747E-004;-5.534143187105656E-003;
2.403500000000000E+009;1.666218489408493E-001;5.471943318843842E-002;-2.219601738033816E-004;-5.530036054551601E-003;
2.403666666666667E+009;1.682933866977692E-001;5.253665521740913E-002;-7.456772727891803E-004;-5.509359762072563E-003;
2.403833333333334E+009;1.696919649839401E-001;4.999179020524025E-002;-9.325638529844582E-004;-5.635257810354233E-003;
2.404000000000000E+009;1.714521646499634E-001;4.796351119875908E-002;-1.323448494076729E-003;-5.371353123337030E-003;
2.404166666666667E+009;1.735974848270416E-001;4.614272341132164E-002;-1.791386748664081E-003;-5.346428602933884E-003;
2.404333333333334E+009;1.753057092428207E-001;4.422136768698692E-002;-1.970220590010285E-003;-5.052322521805763E-003;
2.404500000000000E+009;1.770518273115158E-001;4.259395599365234E-002;-2.301200758665800E-003;-5.049697589129210E-003;
2.404666666666667E+009;1.789586544036865E-001;4.117962718009949E-002;-2.102958038449287E-003;-4.615986254066229E-003;
2.404833333333334E+009;1.803572475910187E-001;3.940584510564804E-002;-2.955306321382523E-003;-4.360170569270849E-003;
2.405000000000000E+009;1.821412295103073E-001;3.868814930319786E-002;-2.979635959491134E-003;-4.028428811579943E-003;
2.405166666666667E+009;1.838552951812744E-001;3.807776421308518E-002;-2.734553767368197E-003;-3.703222377225757E-003;
2.405333333333334E+009;1.855211257934570E-001;3.707687929272652E-002;-2.790293423458934E-003;-3.839851822704077E-003;
2.405500000000000E+009;1.872409433126450E-001;3.640949353575707E-002;-3.405945608392358E-003;-3.492051037028432E-003;
2.405666666666667E+009;1.887715309858322E-001;3.580736368894577E-002;-3.370553487911820E-003;-3.296443028375506E-003;
2.405833333333334E+009;1.903194338083267E-001;3.545926138758659E-002;-3.452928271144629E-003;-3.215757664293051E-003;
2.406000000000000E+009;1.916585564613342E-001;3.534065186977387E-002;-3.273529466241598E-003;-3.077357308939099E-003;
2.406166666666667E+009;1.928590685129166E-001;3.501344844698906E-002;-3.326434642076492E-003;-2.868270734325051E-003;
2.406333333333334E+009;1.941991895437241E-001;3.523207083344460E-002;-3.522326005622745E-003;-2.846030285581946E-003;
2.406500000000000E+009;1.954330205917358E-001;3.524576127529144E-002;-3.536123083904386E-003;-2.561196452006698E-003;
2.406666666666667E+009;1.963378638029099E-001;3.541537001729012E-002;-3.521169768646359E-003;-2.397302305325866E-003;
2.406833333333334E+009;1.972424089908600E-001;3.555332124233246E-002;-3.685897216200829E-003;-2.387312008067966E-003;
2.407000000000000E+009;1.977908164262772E-001;3.605131804943085E-002;-3.686862299218774E-003;-2.066014334559441E-003;
2.407166666666667E+009;1.986425071954727E-001;3.603984415531158E-002;-3.649976570159197E-003;-1.969538861885667E-003;
2.407333333333334E+009;1.988437324762344E-001;3.642553463578224E-002;-3.715031547471881E-003;-2.005829010158777E-003;
2.407500000000000E+009;1.991345286369324E-001;3.688828274607658E-002;-3.788010450080037E-003;-1.629919395782054E-003;
2.407666666666667E+009;1.993711888790131E-001;3.708649426698685E-002;-3.592100227251649E-003;-1.590274041518569E-003;
2.407833333333334E+009;1.991612464189529E-001;3.729901462793350E-002;-3.614130429923534E-003;-1.506564905866981E-003;
2.408000000000000E+009;1.993927508592606E-001;3.751685470342636E-002;-3.530974499881268E-003;-1.244585029780865E-003;
2.408166666666667E+009;1.989575475454330E-001;3.754975274205208E-002;-3.771140705794096E-003;-1.233487273566425E-003;
2.408333333333334E+009;1.986773610115051E-001;3.740603476762772E-002;-3.444691421464086E-003;-1.126492978073657E-003;
2.408500000000000E+009;1.982023417949677E-001;3.751892223954201E-002;-3.449407871812582E-003;-9.097064612433314E-004;
2.408666666666667E+009;1.973729282617569E-001;3.745676204562187E-002;-3.838122822344303E-003;-4.687166074290872E-004;
2.408833333333334E+009;1.969038546085358E-001;3.673966974020004E-002;-3.536157542839646E-003;-9.498242870904505E-004;
2.409000000000000E+009;1.961547881364822E-001;3.641124442219734E-002;-3.084631636738777E-003;-7.754647522233427E-004;
2.409166666666667E+009;1.951226443052292E-001;3.606365993618965E-002;-3.178650978952646E-003;-5.517725949175656E-004;
2.409333333333334E+009;1.941724419593811E-001;3.547591343522072E-002;-3.094805637374520E-003;-4.857298627030104E-004;
2.409500000000000E+009;1.929237693548203E-001;3.455273061990738E-002;-2.940985606983304E-003;-5.318394396454096E-004;
2.409666666666667E+009;1.919003576040268E-001;3.329555690288544E-002;-2.983394544571638E-003;-5.877757212147117E-004;
2.409833333333334E+009;1.906018704175949E-001;3.219465911388397E-002;-2.839539898559451E-003;-4.642908170353621E-004;
2.410000000000000E+009;1.895343661308289E-001;3.102860599756241E-002;-2.963333856314421E-003;-5.044401041232050E-004;
2.410166666666667E+009;1.882624477148056E-001;2.943087555468082E-002;-2.812133869156241E-003;-5.586020415648818E-004;
2.410333333333334E+009;1.870082765817642E-001;2.808184921741486E-002;-2.914306940510869E-003;-6.384250591509044E-004;
2.410500000000000E+009;1.856594383716583E-001;2.622343227267265E-002;-2.880509942770004E-003;-6.843557348474860E-004;
2.410666666666667E+009;1.846527904272080E-001;2.416576072573662E-002;-2.966577187180519E-003;-6.934507400728762E-004;
2.410833333333334E+009;1.835573613643646E-001;2.223144285380840E-002;-3.206024877727032E-003;-5.864522536285222E-004;
2.411000000000000E+009;1.824638545513153E-001;2.012574486434460E-002;-3.123407950624824E-003;-6.548220408149064E-004;
2.411166666666667E+009;1.814978122711182E-001;1.801432296633720E-002;-3.204097738489509E-003;-5.862130783498287E-004;
2.411333333333334E+009;1.806320995092392E-001;1.558421738445759E-002;-3.228476969525218E-003;-6.371354102157056E-004;
2.411500000000000E+009;1.797682344913483E-001;1.315077301114798E-002;-3.309997497126460E-003;-6.464670295827091E-004;
2.411666666666667E+009;1.793380975723267E-001;1.082169264554977E-002;-3.418432548642159E-003;-5.484314169734716E-004;
2.411833333333334E+009;1.787735521793366E-001;8.296548388898373E-003;-3.337328089401126E-003;-3.993006830569357E-004;
2.412000000000000E+009;1.783847212791443E-001;5.601053126156330E-003;-3.393588354811072E-003;-6.174598238430917E-004;
2.412166666666667E+009;1.782585233449936E-001;3.355617169290781E-003;-3.472352400422096E-003;-4.022128414362669E-004;
2.412333333333334E+009;1.781277507543564E-001;4.200543335173279E-004;-3.546724794432521E-003;-5.165573093108833E-004;
2.412500000000000E+009;1.781859248876572E-001;-2.028408925980330E-003;-3.582321805879474E-003;-2.175830159103498E-004;
2.412666666666667E+009;1.785685420036316E-001;-4.827389493584633E-003;-3.625968005508184E-003;-1.982084213523194E-004;
2.412833333333334E+009;1.789065599441528E-001;-7.311576046049595E-003;-3.722187830135226E-003;-9.179657354252413E-005;
2.413000000000000E+009;1.794621795415878E-001;-1.004507951438427E-002;-3.628603415563703E-003;-7.517392805311829E-005;
2.413166666666667E+009;1.801210939884186E-001;-1.261397358030081E-002;-3.942064009606838E-003;1.018145558191463E-004;
2.413333333333334E+009;1.808711886405945E-001;-1.516606658697128E-002;-3.909219522029162E-003;1.419843465555459E-004;
2.413500000000000E+009;1.815242171287537E-001;-1.779491454362869E-002;-4.251587670296431E-003;1.937778870342299E-004;
2.413666666666667E+009;1.827406883239746E-001;-2.011097967624664E-002;-4.276744090020657E-003;3.900696465279907E-004;
2.413833333333334E+009;1.838315874338150E-001;-2.261141873896122E-002;-4.490113817155361E-003;6.761475815437734E-004;
2.414000000000000E+009;1.846884489059448E-001;-2.489332668483257E-002;-4.460436757653952E-003;8.123555453494191E-004;
2.414166666666667E+009;1.860734373331070E-001;-2.706592343747616E-002;-4.492591135203838E-003;9.415393578819931E-004;
2.414333333333334E+009;1.872726380825043E-001;-2.936873957514763E-002;-4.678531084209681E-003;1.218445482663810E-003;
2.414500000000000E+009;1.885130554437637E-001;-3.123811259865761E-002;-4.629893228411675E-003;1.486731576733291E-003;
2.414666666666667E+009;1.899634748697281E-001;-3.289074078202248E-002;-4.573957528918982E-003;1.783643034286797E-003;
2.414833333333334E+009;1.909691095352173E-001;-3.458931297063828E-002;-4.483557771891356E-003;1.981886569410563E-003;
2.415000000000000E+009;1.923688948154450E-001;-3.630220144987106E-002;-4.411612171679735E-003;2.354096388444305E-003;
2.415166666666667E+009;1.937079876661301E-001;-3.750275447964668E-002;-4.270601086318493E-003;2.508152974769473E-003;
2.415333333333334E+009;1.951284259557724E-001;-3.868319839239121E-002;-4.274454433470964E-003;2.637741621583700E-003;
2.415500000000000E+009;1.965052932500839E-001;-3.971705585718155E-002;-4.164301790297031E-003;2.821207279339433E-003;
2.415666666666667E+009;1.975894868373871E-001;-4.076527431607246E-002;-3.988785669207573E-003;2.945101819932461E-003;
2.415833333333334E+009;1.988601684570313E-001;-4.152267053723335E-002;-4.078757949173451E-003;3.127176314592362E-003;
2.416000000000000E+009;1.999271363019943E-001;-4.234135523438454E-002;-3.801908111199737E-003;3.270208137109876E-003;
2.416166666666667E+009;2.010473906993866E-001;-4.297937452793121E-002;-3.776393365114927E-003;3.478615777567029E-003;
2.416333333333334E+009;2.019084095954895E-001;-4.329697415232658E-002;-3.489826805889607E-003;3.527822438627482E-003;
2.416500000000000E+009;2.028183937072754E-001;-4.366980120539665E-002;-3.403288545086980E-003;3.755370853468776E-003;
2.416666666666667E+009;2.033961266279221E-001;-4.397548735141754E-002;-3.283356083557010E-003;3.856025170534849E-003;
2.416833333333334E+009;2.039810866117477E-001;-4.399792477488518E-002;-3.136318875476718E-003;3.923979122191668E-003;
2.417000000000000E+009;2.043060213327408E-001;-4.403673857450485E-002;-2.997047035023570E-003;4.220473114401102E-003;
2.417166666666667E+009;2.044254690408707E-001;-4.405501112341881E-002;-2.719454932957888E-003;4.339782521128655E-003;
2.417333333333334E+009;2.045113891363144E-001;-4.368655383586884E-002;-2.502274932339788E-003;4.312189761549234E-003;
2.417500000000000E+009;2.044576108455658E-001;-4.350998625159264E-002;-2.383200218901038E-003;4.451898392289877E-003;
2.417666666666667E+009;2.042555958032608E-001;-4.310590401291847E-002;-2.426897408440709E-003;4.404029808938503E-003;
2.417833333333334E+009;2.041835188865662E-001;-4.279279708862305E-002;-2.180308103561401E-003;4.640311934053898E-003;
2.418000000000000E+009;2.038157880306244E-001;-4.233403876423836E-002;-2.133468864485622E-003;4.555360879749060E-003;
2.418166666666667E+009;2.031460255384445E-001;-4.200072959065437E-002;-1.975471386685967E-003;4.871017299592495E-003;
2.418333333333334E+009;2.025992870330811E-001;-4.150955006480217E-002;-1.914532855153084E-003;4.805771633982658E-003;
2.418500000000000E+009;2.017504572868347E-001;-4.132799059152603E-002;-1.599936163984239E-003;4.933509044349194E-003;
2.418666666666667E+009;2.009855210781097E-001;-4.084669053554535E-002;-1.451538642868400E-003;4.989383276551962E-003;
2.418833333333334E+009;1.998511999845505E-001;-4.088711366057396E-002;-1.420609885826707E-003;5.048555787652731E-003;
2.419000000000000E+009;1.985771059989929E-001;-4.072158783674240E-002;-1.103976392187178E-003;5.203558132052422E-003;
2.419166666666667E+009;1.974465698003769E-001;-4.074839502573013E-002;-7.934422465041280E-004;5.255376920104027E-003;
2.419333333333334E+009;1.960799694061279E-001;-4.078015685081482E-002;-6.958228768780828E-004;5.394914187490940E-003;
2.419500000000000E+009;1.945786625146866E-001;-4.090853780508041E-002;-2.959899429697543E-004;5.427350755780935E-003;
2.419666666666667E+009;1.929396688938141E-001;-4.144095256924629E-002;-1.387770171277225E-004;5.560137331485748E-003;
2.419833333333334E+009;1.911929249763489E-001;-4.177388176321983E-002;6.616998143726960E-005;5.376340355724096E-003;
2.420000000000000E+009;1.896652132272720E-001;-4.242368787527084E-002;4.465014208108187E-004;5.358625203371048E-003;
2.420166666666667E+009;1.878603994846344E-001;-4.311834275722504E-002;6.863495218567550E-004;5.301618017256260E-003;
2.420333333333334E+009;1.859887987375259E-001;-4.399120435118675E-002;9.124769130721688E-004;5.163957830518484E-003;
2.420500000000000E+009;1.841687262058258E-001;-4.503419250249863E-002;1.149528077803552E-003;5.028997082263231E-003;
2.420666666666667E+009;1.823237389326096E-001;-4.598224908113480E-002;1.477843732573092E-003;4.867906682193279E-003;
2.420833333333334E+009;1.806071996688843E-001;-4.721919447183609E-002;1.398582360707223E-003;4.659992642700672E-003;
2.421000000000000E+009;1.785670518875122E-001;-4.872156307101250E-002;1.556182629428804E-003;4.481090698391199E-003;
2.421166666666667E+009;1.770329326391220E-001;-5.018071457743645E-002;1.666046679019928E-003;4.434605594724417E-003;
2.421333333333334E+009;1.751496493816376E-001;-5.168976634740830E-002;1.781326951459050E-003;4.396257922053337E-003;
2.421500000000000E+009;1.734527051448822E-001;-5.355008691549301E-002;1.856032293289900E-003;4.229309037327766E-003;
2.421666666666667E+009;1.720491796731949E-001;-5.525386705994606E-002;2.022728556767106E-003;4.082994535565376E-003;
2.421833333333334E+009;1.706229150295258E-001;-5.716313049197197E-002;2.192800398916006E-003;4.155565053224564E-003;
2.422000000000000E+009;1.690743565559387E-001;-5.900124460458756E-002;2.084007952362299E-003;3.968528471887112E-003;
2.422166666666667E+009;1.680310219526291E-001;-6.130971014499664E-002;2.205238910391927E-003;3.909594845026732E-003;
2.422333333333334E+009;1.665257066488266E-001;-6.324644386768341E-002;2.194473985582590E-003;3.829398425295949E-003;
2.422500000000000E+009;1.655167341232300E-001;-6.536887586116791E-002;2.320354105904698E-003;3.736803308129311E-003;
2.422666666666667E+009;1.645760834217072E-001;-6.760156154632568E-002;2.507249126210809E-003;3.705525305122137E-003;
2.422833333333334E+009;1.638664603233337E-001;-6.988173723220825E-002;2.548461314290762E-003;3.418090753257275E-003;
2.423000000000000E+009;1.630730926990509E-001;-7.216440141201019E-002;2.676091156899929E-003;3.519606776535511E-003;
2.423166666666667E+009;1.625602841377258E-001;-7.417165488004684E-002;2.767326543107629E-003;3.431481309235096E-003;
2.423333333333334E+009;1.621584147214890E-001;-7.629947364330292E-002;2.806244185194373E-003;3.184643108397722E-003;
2.423500000000000E+009;1.618691533803940E-001;-7.868518680334091E-002;3.083404153585434E-003;3.248278750106692E-003;
2.423666666666667E+009;1.616907864809036E-001;-8.089173585176468E-002;3.050754312425852E-003;2.871972974389792E-003;
2.423833333333334E+009;1.615337878465653E-001;-8.270391076803207E-002;3.073001513257623E-003;2.889603376388550E-003;
2.424000000000000E+009;1.615526825189591E-001;-8.490504324436188E-002;3.173185978084803E-003;2.735854359343648E-003;
2.424166666666667E+009;1.616299599409103E-001;-8.680650591850281E-002;3.401140682399273E-003;2.561226719990373E-003;
2.424333333333334E+009;1.620568037033081E-001;-8.861700445413590E-002;3.483812790364027E-003;2.326002111658454E-003;
2.424500000000000E+009;1.622479856014252E-001;-9.061627089977264E-002;3.241566009819508E-003;2.148758387193084E-003;
2.424666666666667E+009;1.627193540334702E-001;-9.228428453207016E-002;3.404331859201193E-003;2.193995518609881E-003;
2.424833333333334E+009;1.632768213748932E-001;-9.394792467355728E-002;3.304055193439126E-003;2.053477335721254E-003;
2.425000000000000E+009;1.638677418231964E-001;-9.550083428621292E-002;3.338511101901531E-003;1.865131314843893E-003;
2.425166666666667E+009;1.642829924821854E-001;-9.682692587375641E-002;3.253361675888300E-003;1.522451406344771E-003;
2.425333333333334E+009;1.648584455251694E-001;-9.809862077236176E-002;3.209097543731332E-003;1.501434249803424E-003;
2.425500000000000E+009;1.654825508594513E-001;-9.933321923017502E-002;3.148939693346620E-003;1.497260876931250E-003;
2.425666666666667E+009;1.662845462560654E-001;-1.002425476908684E-001;3.171332413330674E-003;1.297745155170560E-003;
2.425833333333334E+009;1.667587012052536E-001;-1.013430804014206E-001;3.014746820554137E-003;1.324170967563987E-003;
2.426000000000000E+009;1.674067080020905E-001;-1.019836142659187E-001;3.000499680638313E-003;1.331237610429525E-003;
2.426166666666667E+009;1.682338714599609E-001;-1.026277095079422E-001;3.013150300830603E-003;1.294733840040863E-003;
2.426333333333334E+009;1.686003208160400E-001;-1.033881083130837E-001;2.934087533503771E-003;1.244904007762671E-003;
2.426500000000000E+009;1.694132387638092E-001;-1.037647202610970E-001;3.026832826435566E-003;1.207881839945912E-003;
2.426666666666667E+009;1.699707955121994E-001;-1.041867807507515E-001;2.938382560387254E-003;1.112070400267839E-003;
2.426833333333334E+009;1.704899817705154E-001;-1.046019494533539E-001;2.904487075284123E-003;9.880808647722006E-004;
2.427000000000000E+009;1.709080189466476E-001;-1.048048213124275E-001;3.009864594787359E-003;1.023212098516524E-003;
2.427166666666667E+009;1.712833791971207E-001;-1.049129962921143E-001;2.833848819136620E-003;1.003932440653443E-003;
2.427333333333334E+009;1.715560257434845E-001;-1.052857190370560E-001;3.003547433763742E-003;9.227193077094853E-004;
2.427500000000000E+009;1.716651767492294E-001;-1.054367423057556E-001;3.154262667521834E-003;8.797767804935575E-004;
2.427666666666667E+009;1.717660278081894E-001;-1.053436398506165E-001;3.127385163679719E-003;1.035520457662642E-003;
