# Version 1.00
#
freq[Hz];re:Trc1_S11;im:Trc1_S11;re:Trc2_S21;im:Trc2_S21;
2.400000000000000E+009;1.580906808376312E-001;1.120463237166405E-001;3.178724320605397E-003;-2.854104386642575E-003;
2.400166666666667E+009;1.573724150657654E-001;1.098047196865082E-001;2.996421186253429E-003;-2.944191219285131E-003;
2.400333333333334E+009;1.572516560554504E-001;1.076715737581253E-001;3.117596497759223E-003;-3.123324597254396E-003;
2.400500000000000E+009;1.567818373441696E-001;1.050488352775574E-001;2.830129349604249E-003;-3.313821740448475E-003;
2.400666666666667E+009;1.564864963293076E-001;1.027714014053345E-001;2.462588483467698E-003;-3.422486828640103E-003;
2.400833333333334E+009;1.560866087675095E-001;9.980237483978272E-002;2.309446455910802E-003;-3.612985368818045E-003;
2.401000000000000E+009;1.558389514684677E-001;9.688159078359604E-002;2.255857689306140E-003;-3.612138796597719E-003;
2.401166666666667E+009;1.556966304779053E-001;9.420942515134811E-002;2.322681713849306E-003;-3.665842814370990E-003;
2.401333333333334E+009;1.556209623813629E-001;9.132727980613709E-002;2.149254782125354E-003;-3.775089280679822E-003;
2.401500000000000E+009;1.557749807834625E-001;8.821123093366623E-002;2.074168063700199E-003;-3.922966774553061E-003;
2.401666666666667E+009;1.556684672832489E-001;8.533578366041184E-002;1.898604677990079E-003;-3.966451622545719E-003;
2.401833333333334E+009;1.559196263551712E-001;8.234928548336029E-002;2.002412918955088E-003;-4.009389784187079E-003;
2.402000000000000E+009;1.564657688140869E-001;7.936571538448334E-002;1.742206513881683E-003;-4.355337936431170E-003;
2.402166666666667E+009;1.569518297910690E-001;7.649447768926621E-002;1.624024356715381E-003;-4.246430005878210E-003;
2.402333333333334E+009;1.577605009078980E-001;7.347933202981949E-002;1.500491751357913E-003;-4.441516473889351E-003;
2.402500000000000E+009;1.589273214340210E-001;7.049299031496048E-002;1.390200573951006E-003;-4.584627691656351E-003;
2.402666666666667E+009;1.595796942710877E-001;6.812403351068497E-002;1.190763665363193E-003;-4.812806844711304E-003;
2.402833333333334E+009;1.609662920236588E-001;6.503025442361832E-002;9.874602546915412E-004;-4.957187455147505E-003;
2.403000000000000E+009;1.622502952814102E-001;6.218412518501282E-002;7.346363854594529E-004;-5.139202345162630E-003;
2.403166666666667E+009;1.638686656951904E-001;5.979083850979805E-002;5.568648921325803E-004;-4.960441961884499E-003;
2.403333333333334E+009;1.651393771171570E-001;5.701681599020958E-002;-2.553088415879756E-004;-5.715169012546539E-003;
2.403500000000000E+009;1.672030240297318E-001;5.455046519637108E-002;-4.657007593777962E-005;-6.228096317499876E-003;
2.403666666666667E+009;1.681887954473496E-001;5.267652869224548E-002;-3.272179164923728E-004;-5.296648014336824E-003;
2.403833333333334E+009;1.706280261278153E-001;5.085347965359688E-002;4.928898852085695E-005;-5.069201346486807E-003;
2.404000000000000E+009;1.713248789310455E-001;4.783927276730537E-002;-1.890558516606689E-003;-5.290430970489979E-003;
2.404166666666667E+009;1.735090464353561E-001;4.605169594287872E-002;-1.657147658988833E-003;-5.207734648138285E-003;
2.404333333333334E+009;1.753243803977966E-001;4.410363733768463E-002;-1.958588836714625E-003;-5.103525239974260E-003;
2.404500000000000E+009;1.770455092191696E-001;4.234872013330460E-002;-2.197038615122438E-003;-4.905583802610636E-003;
2.404666666666667E+009;1.788479387760162E-001;4.105196148157120E-002;-2.346607390791178E-003;-4.629606846719980E-003;
2.404833333333334E+009;1.807128340005875E-001;3.959554061293602E-002;-2.717078896239400E-003;-4.452920518815517E-003;
2.405000000000000E+009;1.822769790887833E-001;3.868690133094788E-002;-2.808126620948315E-003;-4.361147526651621E-003;
2.405166666666667E+009;1.839748471975327E-001;3.757442906498909E-002;-2.832738915458322E-003;-4.040857776999474E-003;
2.405333333333334E+009;1.856246739625931E-001;3.696932271122932E-002;-3.032476408407092E-003;-3.782960120588541E-003;
2.405500000000000E+009;1.874249279499054E-001;3.632603958249092E-002;-3.058456815779209E-003;-3.588209627196193E-003;
2.405666666666667E+009;1.889152377843857E-001;3.585046157240868E-002;-3.110002959147096E-003;-3.521947888657451E-003;
2.405833333333334E+009;1.904788613319397E-001;3.549257665872574E-002;-3.277126466855407E-003;-3.346655517816544E-003;
2.406000000000000E+009;1.918597966432571E-001;3.522672876715660E-002;-3.289422253146768E-003;-3.246290609240532E-003;
2.406166666666667E+009;1.930374205112457E-001;3.498462960124016E-002;-3.428277093917131E-003;-2.988736145198345E-003;
2.406333333333334E+009;1.944914460182190E-001;3.508846461772919E-002;-3.417129628360272E-003;-2.855447353795171E-003;
2.406500000000000E+009;1.954554915428162E-001;3.530117869377136E-002;-3.517667530104518E-003;-2.555836457759142E-003;
2.406666666666667E+009;1.964500993490219E-001;3.531352430582047E-002;-3.380615729838610E-003;-2.629487076774240E-003;
2.406833333333334E+009;1.973177194595337E-001;3.550860285758972E-002;-3.545325482264161E-003;-2.526741242036223E-003;
2.407000000000000E+009;1.980542689561844E-001;3.593685477972031E-002;-3.646522061899304E-003;-2.309935167431831E-003;
2.407166666666667E+009;1.987024992704392E-001;3.601911291480064E-002;-3.542181104421616E-003;-2.021029824391007E-003;
2.407333333333334E+009;1.990337073802948E-001;3.635337203741074E-002;-3.708854550495744E-003;-1.986231887713075E-003;
2.407500000000000E+009;1.991912275552750E-001;3.689828142523766E-002;-3.594929119572043E-003;-1.859577256254852E-003;
2.407666666666667E+009;1.994336694478989E-001;3.710541129112244E-002;-3.515298245474696E-003;-1.729409443214536E-003;
2.407833333333334E+009;1.992808729410172E-001;3.730577602982521E-002;-3.677116939797998E-003;-1.593507709912956E-003;
2.408000000000000E+009;1.995326578617096E-001;3.741247579455376E-002;-3.529787063598633E-003;-1.379522378556430E-003;
2.408166666666667E+009;1.990873366594315E-001;3.747827187180519E-002;-3.518923418596387E-003;-1.249867607839406E-003;
2.408333333333334E+009;1.988865137100220E-001;3.737237304449081E-002;-3.657027147710323E-003;-1.351663027890027E-003;
2.408500000000000E+009;1.982756853103638E-001;3.745289519429207E-002;-3.378096735104919E-003;-9.910621447488666E-004;
2.408666666666667E+009;1.976965665817261E-001;3.721877932548523E-002;-3.411189652979374E-003;-9.107699734158814E-004;
2.408833333333334E+009;1.971773207187653E-001;3.699940070509911E-002;-3.379509551450610E-003;-8.556264801882207E-004;
2.409000000000000E+009;1.962035000324249E-001;3.645105659961700E-002;-3.344150260090828E-003;-6.909422227181494E-004;
2.409166666666667E+009;1.951947957277298E-001;3.583764284849167E-002;-3.267942927777767E-003;-6.599710322916508E-004;
2.409333333333334E+009;1.942507028579712E-001;3.523890674114227E-002;-3.246740670874715E-003;-5.470830365084112E-004;
2.409500000000000E+009;1.930384635925293E-001;3.434777259826660E-002;-3.082532435655594E-003;-7.121392409317195E-004;
2.409666666666667E+009;1.919918209314346E-001;3.323308005928993E-002;-3.122328547760844E-003;-6.210784194990993E-004;
2.409833333333334E+009;1.908064633607864E-001;3.221103549003601E-002;-2.856675302609801E-003;-7.352508837357163E-004;
2.410000000000000E+009;1.895517855882645E-001;3.074504621326923E-002;-3.044062061235309E-003;-6.021769368089736E-004;
2.410166666666667E+009;1.883165091276169E-001;2.920893579721451E-002;-2.822918351739645E-003;-8.200711454264820E-004;
2.410333333333334E+009;1.868917495012283E-001;2.773562818765640E-002;-3.198973136022687E-003;-8.165810722857714E-004;
2.410500000000000E+009;1.857586503028870E-001;2.622189000248909E-002;-3.091733902692795E-003;-4.427504609338939E-004;
2.410666666666667E+009;1.846970021724701E-001;2.403261885046959E-002;-2.835203194990754E-003;-6.573837017640472E-004;
2.410833333333334E+009;1.837434023618698E-001;2.192383632063866E-002;-3.073610365390778E-003;-7.667931495234370E-004;
2.411000000000000E+009;1.826284080743790E-001;1.992382854223251E-002;-3.193776588886976E-003;-7.756160339340568E-004;
2.411166666666667E+009;1.814758330583572E-001;1.789235137403011E-002;-3.313434077426791E-003;-7.785382331348956E-004;
2.411333333333334E+009;1.808499842882156E-001;1.536179333925247E-002;-3.268242347985506E-003;-6.013014935888350E-004;
2.411500000000000E+009;1.799242198467255E-001;1.297577470541000E-002;-3.212611889466643E-003;-5.810275324620307E-004;
2.411666666666667E+009;1.794986128807068E-001;1.070156041532755E-002;-3.317431546747685E-003;-5.355285829864442E-004;
2.411833333333334E+009;1.786915808916092E-001;8.192665874958038E-003;-3.430191893130541E-003;-5.198681610636413E-004;
2.412000000000000E+009;1.783954203128815E-001;5.525822285562754E-003;-3.460093401372433E-003;-4.999892553314567E-004;
2.412166666666667E+009;1.783250421285629E-001;2.943308325484395E-003;-3.498727222904563E-003;-3.791426133830100E-004;
2.412333333333334E+009;1.781182289123535E-001;3.818614350166172E-004;-3.563237609341741E-003;-2.847433788701892E-004;
2.412500000000000E+009;1.783127784729004E-001;-2.334446413442493E-003;-3.546054475009441E-003;-4.023916844744235E-004;
2.412666666666667E+009;1.785008609294891E-001;-5.057216621935368E-003;-3.697297768667340E-003;-2.759322524070740E-004;
2.412833333333334E+009;1.789198815822601E-001;-7.690332829952240E-003;-3.768821246922016E-003;-1.182800260721706E-004;
2.413000000000000E+009;1.795738935470581E-001;-1.015064865350723E-002;-3.877315903082490E-003;-1.789652742445469E-005;
2.413166666666667E+009;1.801603585481644E-001;-1.256766356527805E-002;-3.981435205787420E-003;-7.470313721569255E-005;
2.413333333333334E+009;1.807758659124374E-001;-1.532264333218336E-002;-4.161090124398470E-003;6.327860319288448E-005;
2.413500000000000E+009;1.816949695348740E-001;-1.810230128467083E-002;-4.285297356545925E-003;2.360557991778478E-004;
2.413666666666667E+009;1.828150749206543E-001;-2.044836990535259E-002;-4.296990111470223E-003;3.851734218187630E-004;
2.413833333333334E+009;1.836296617984772E-001;-2.290915325284004E-002;-4.558613058179617E-003;6.441141013056040E-004;
2.414000000000000E+009;1.848207116127014E-001;-2.499625459313393E-002;-4.697285592556000E-003;8.021736284717917E-004;
2.414166666666667E+009;1.859265863895416E-001;-2.731020748615265E-002;-4.607413429766893E-003;8.999820565804839E-004;
2.414333333333334E+009;1.871348023414612E-001;-2.948474884033203E-002;-4.758924711495638E-003;1.350281876511872E-003;
2.414500000000000E+009;1.884696930646896E-001;-3.132821992039681E-002;-4.664328880608082E-003;1.670691999606788E-003;
2.414666666666667E+009;1.896627098321915E-001;-3.309353813529015E-002;-4.527090117335320E-003;1.821845420636237E-003;
2.414833333333334E+009;1.910500079393387E-001;-3.471687063574791E-002;-4.707033745944500E-003;1.964161172509193E-003;
2.415000000000000E+009;1.922957003116608E-001;-3.642864152789116E-002;-4.592716228216887E-003;2.161789918318391E-003;
2.415166666666667E+009;1.936713755130768E-001;-3.765251487493515E-002;-4.477658774703741E-003;2.454462926834822E-003;
2.415333333333334E+009;1.950134634971619E-001;-3.893247991800308E-002;-4.383083432912827E-003;2.730618929490447E-003;
2.415500000000000E+009;1.963924765586853E-001;-3.977751359343529E-002;-4.180506803095341E-003;2.684877952560782E-003;
2.415666666666667E+009;1.976944506168366E-001;-4.085059463977814E-002;-4.047871101647615E-003;2.906118752434850E-003;
2.415833333333334E+009;1.986958831548691E-001;-4.156817495822907E-002;-4.053855780512095E-003;3.101522335782647E-003;
2.416000000000000E+009;1.998320966959000E-001;-4.242043569684029E-002;-3.899129573255777E-003;3.224302083253861E-003;
2.416166666666667E+009;2.007337659597397E-001;-4.305342584848404E-002;-3.694574581459165E-003;3.475975943729281E-003;
2.416333333333334E+009;2.017180770635605E-001;-4.333747923374176E-002;-3.516735974699259E-003;3.659644629806280E-003;
2.416500000000000E+009;2.025794386863709E-001;-4.365726932883263E-002;-3.568397369235754E-003;3.690689103677869E-003;
2.416666666666667E+009;2.031295150518417E-001;-4.418742284178734E-002;-3.259985707700253E-003;4.015839193016291E-003;
2.416833333333334E+009;2.037756741046906E-001;-4.407644644379616E-002;-3.197429701685906E-003;4.043693188577890E-003;
2.417000000000000E+009;2.041236609220505E-001;-4.419440776109695E-002;-3.065292723476887E-003;4.147773142904043E-003;
2.417166666666667E+009;2.042178213596344E-001;-4.400499165058136E-002;-2.786038210615516E-003;4.263095557689667E-003;
2.417333333333334E+009;2.043727189302445E-001;-4.373584315180779E-002;-2.667150227352977E-003;4.300739616155624E-003;
2.417500000000000E+009;2.044328004121780E-001;-4.353455826640129E-002;-2.485561184585095E-003;4.440386779606342E-003;
2.417666666666667E+009;2.041018605232239E-001;-4.318842291831970E-002;-2.323890570551157E-003;4.694900475442410E-003;
2.417833333333334E+009;2.040465474128723E-001;-4.276941716670990E-002;-2.278718864545226E-003;4.640619270503521E-003;
2.418000000000000E+009;2.036126703023911E-001;-4.233933612704277E-002;-2.175254747271538E-003;4.648108035326004E-003;
2.418166666666667E+009;2.030232250690460E-001;-4.201637580990791E-002;-2.015893114730716E-003;4.650089889764786E-003;
2.418333333333334E+009;2.023532241582871E-001;-4.160204157233238E-002;-1.904078293591738E-003;4.802476149052382E-003;
2.418500000000000E+009;2.015216201543808E-001;-4.146561399102211E-002;-1.703283283859491E-003;4.840063862502575E-003;
2.418666666666667E+009;2.008398622274399E-001;-4.094266518950462E-002;-1.463686581701040E-003;4.994878545403481E-003;
2.418833333333334E+009;1.997034996747971E-001;-4.077289253473282E-002;-1.318497350439429E-003;5.240020342171192E-003;
2.419000000000000E+009;1.983699202537537E-001;-4.075183346867561E-002;-1.235658186487854E-003;5.376080516725779E-003;
2.419166666666667E+009;1.972385197877884E-001;-4.084916785359383E-002;-9.233659366145730E-004;5.232090130448341E-003;
2.419333333333334E+009;1.958701014518738E-001;-4.085902869701386E-002;-5.517788813449442E-004;5.328163504600525E-003;
2.419500000000000E+009;1.944641321897507E-001;-4.101193323731422E-002;-4.967341083101928E-004;5.492587108165026E-003;
2.419666666666667E+009;1.928724199533463E-001;-4.145306348800659E-002;-3.028066712431610E-004;5.474321078509092E-003;
2.419833333333334E+009;1.910989433526993E-001;-4.177847132086754E-002;-1.345317650702782E-005;5.372191313654184E-003;
2.420000000000000E+009;1.893929392099381E-001;-4.239610582590103E-002;3.945275675505400E-004;5.425794050097466E-003;
2.420166666666667E+009;1.878131479024887E-001;-4.297390580177307E-002;6.645697867497802E-004;5.456207785755396E-003;
2.420333333333334E+009;1.859987974166870E-001;-4.395012930035591E-002;8.591705700382590E-004;5.153682082891464E-003;
2.420500000000000E+009;1.839770972728729E-001;-4.494964703917503E-002;1.091642538085580E-003;5.070262122899294E-003;
2.420666666666667E+009;1.821379214525223E-001;-4.581405222415924E-002;1.248021726496518E-003;4.834040068089962E-003;
2.420833333333334E+009;1.802776157855988E-001;-4.720157012343407E-002;1.467614085413516E-003;4.804638680070639E-003;
2.421000000000000E+009;1.787631809711456E-001;-4.864509776234627E-002;1.594774075783789E-003;4.611384123563767E-003;
2.421166666666667E+009;1.769762933254242E-001;-5.028499290347099E-002;1.613653497770429E-003;4.479936324059963E-003;
2.421333333333334E+009;1.749716252088547E-001;-5.160393938422203E-002;1.847846782766283E-003;4.359578248113394E-003;
2.421500000000000E+009;1.733752936124802E-001;-5.347257852554321E-002;1.767900306731463E-003;4.325883928686380E-003;
2.421666666666667E+009;1.718112528324127E-001;-5.513131245970726E-002;1.797576551325619E-003;4.257478285580874E-003;
2.421833333333334E+009;1.705178171396256E-001;-5.711889639496803E-002;1.984362956136465E-003;4.115012940019369E-003;
2.422000000000000E+009;1.689140647649765E-001;-5.907605215907097E-002;2.196643967181444E-003;4.101768601685762E-003;
2.422166666666667E+009;1.679082661867142E-001;-6.121461465954781E-002;2.048187889158726E-003;3.997126594185829E-003;
2.422333333333334E+009;1.665048897266388E-001;-6.330870091915131E-002;2.487578196451068E-003;3.936830908060074E-003;
2.422500000000000E+009;1.654495000839233E-001;-6.547291576862335E-002;2.308098832145333E-003;3.685597097501159E-003;
2.422666666666667E+009;1.644168049097061E-001;-6.750050187110901E-002;2.487942809239030E-003;3.674450796097517E-003;
2.422833333333334E+009;1.637972444295883E-001;-6.995032727718353E-002;2.659194171428680E-003;3.633550135418773E-003;
2.423000000000000E+009;1.628502011299133E-001;-7.216477394104004E-002;2.764355158433318E-003;3.513419069349766E-003;
2.423166666666667E+009;1.624165922403336E-001;-7.419446855783463E-002;2.731008920818567E-003;3.349179401993752E-003;
2.423333333333334E+009;1.619001924991608E-001;-7.649713754653931E-002;2.998284529894590E-003;3.374969586730003E-003;
2.423500000000000E+009;1.617787033319473E-001;-7.850191742181778E-002;3.187676426023245E-003;3.176148282364011E-003;
2.423666666666667E+009;1.616633683443070E-001;-8.065050095319748E-002;3.219529520720244E-003;3.134606173262000E-003;
2.423833333333334E+009;1.615235358476639E-001;-8.269395679235458E-002;3.251852001994848E-003;2.930245827883482E-003;
2.424000000000000E+009;1.616148054599762E-001;-8.496590703725815E-002;3.140436252579093E-003;2.926754299551249E-003;
2.424166666666667E+009;1.617715209722519E-001;-8.676874637603760E-002;3.199835307896137E-003;2.689505927264690E-003;
2.424333333333334E+009;1.620171070098877E-001;-8.857300877571106E-002;3.495991695672274E-003;2.300646854564548E-003;
2.424500000000000E+009;1.623386293649674E-001;-9.069186449050903E-002;3.475981997326016E-003;2.315700752660632E-003;
2.424666666666667E+009;1.625951081514359E-001;-9.228802472352982E-002;3.373098326846957E-003;2.156899310648441E-003;
2.424833333333334E+009;1.633117049932480E-001;-9.386347234249115E-002;3.369612852111459E-003;1.908948877826333E-003;
2.425000000000000E+009;1.638307273387909E-001;-9.546487778425217E-002;3.401044057682157E-003;1.766692963428795E-003;
2.425166666666667E+009;1.643020510673523E-001;-9.683271497488022E-002;3.413558239117265E-003;1.706760376691818E-003;
2.425333333333334E+009;1.648371368646622E-001;-9.806626290082932E-002;3.384432522580028E-003;1.633986481465399E-003;
2.425500000000000E+009;1.655265986919403E-001;-9.928041696548462E-002;3.389686578884721E-003;1.417487510479987E-003;
2.425666666666667E+009;1.661772727966309E-001;-1.002548709511757E-001;3.365237265825272E-003;1.403617323376238E-003;
2.425833333333334E+009;1.667063981294632E-001;-1.012748479843140E-001;3.236749907955527E-003;1.418468076735735E-003;
2.426000000000000E+009;1.675368249416351E-001;-1.018444225192070E-001;3.187258960679174E-003;1.270416192710400E-003;
2.426166666666667E+009;1.682012230157852E-001;-1.026608571410179E-001;3.035877365618944E-003;1.197729492560029E-003;
2.426333333333334E+009;1.685915291309357E-001;-1.032950878143311E-001;3.104813396930695E-003;1.207421533763409E-003;
2.426500000000000E+009;1.693965941667557E-001;-1.037644818425179E-001;3.126544179394841E-003;1.124507747590542E-003;
2.426666666666667E+009;1.698989868164063E-001;-1.041629835963249E-001;3.049463266506791E-003;1.245752326212823E-003;
2.426833333333334E+009;1.705279648303986E-001;-1.046358421444893E-001;3.138176398351789E-003;1.155527192167938E-003;
2.427000000000000E+009;1.707642674446106E-001;-1.048018932342529E-001;3.099518828094006E-003;1.070236321538687E-003;
2.427166666666667E+009;1.711973994970322E-001;-1.049866005778313E-001;2.958111930638552E-003;9.897886775434017E-004;
2.427333333333334E+009;1.715448796749115E-001;-1.051555350422859E-001;3.019183641299605E-003;8.448489825241268E-004;
2.427500000000000E+009;1.715975254774094E-001;-1.053059473633766E-001;3.026427468284965E-003;9.829780319705606E-004;
2.427666666666667E+009;1.716167479753494E-001;-1.053026244044304E-001;3.095011459663510E-003;9.952752152457833E-004;
