# Version 1.00
#
freq[Hz];re:Trc1_S11;im:Trc1_S11;re:Trc2_S21;im:Trc2_S21;
2.400000000000000E+009;1.580107361078262E-001;1.119778826832771E-001;3.330087289214134E-003;-2.896338002756238E-003;
2.400166666666667E+009;1.573696881532669E-001;1.097803413867950E-001;3.136449260637164E-003;-2.940102713182569E-003;
2.400333333333334E+009;1.569482237100601E-001;1.077151969075203E-001;2.939851256087422E-003;-3.191952360793948E-003;
2.400500000000000E+009;1.566321253776550E-001;1.051476374268532E-001;2.861314918845892E-003;-3.401171648874879E-003;
2.400666666666667E+009;1.564494818449020E-001;1.027545034885407E-001;2.694577677175403E-003;-3.471590811386704E-003;
2.400833333333334E+009;1.559308618307114E-001;9.975449740886688E-002;2.617121674120426E-003;-3.656576620414853E-003;
2.401000000000000E+009;1.560341566801071E-001;9.680368006229401E-002;2.373529598116875E-003;-3.817213233560324E-003;
2.401166666666667E+009;1.556413769721985E-001;9.405326098203659E-002;2.221065573394299E-003;-3.879626048728824E-003;
2.401333333333334E+009;1.555205881595612E-001;9.113802760839462E-002;1.995968865230680E-003;-3.782973391935229E-003;
2.401500000000000E+009;1.556269377470017E-001;8.832388371229172E-002;2.104203216731548E-003;-3.933379426598549E-003;
2.401666666666667E+009;1.555941700935364E-001;8.525893092155457E-002;1.987517345696688E-003;-4.079507198184729E-003;
2.401833333333334E+009;1.558890938758850E-001;8.234257251024246E-002;1.867000595666468E-003;-4.273181315511465E-003;
2.402000000000000E+009;1.563925594091415E-001;7.911187410354614E-002;1.783716958016157E-003;-4.330507945269346E-003;
2.402166666666667E+009;1.570804417133331E-001;7.645932585000992E-002;1.625773613341153E-003;-4.634949378669262E-003;
2.402333333333334E+009;1.576928794384003E-001;7.336536049842835E-002;1.622747397050262E-003;-4.621938336640596E-003;
2.402500000000000E+009;1.586869657039642E-001;7.049822807312012E-002;1.319674542173743E-003;-4.624823108315468E-003;
2.402666666666667E+009;1.595455259084702E-001;6.794621050357819E-002;1.071266015060246E-003;-4.991356283426285E-003;
2.402833333333334E+009;1.606531143188477E-001;6.510686874389648E-002;8.513745269738138E-004;-5.023241974413395E-003;
2.403000000000000E+009;1.620511710643768E-001;6.237366423010826E-002;5.515851080417633E-004;-5.325328093022108E-003;
2.403166666666667E+009;1.635997295379639E-001;5.974148586392403E-002;2.783132367767394E-004;-5.410414189100266E-003;
2.403333333333334E+009;1.650391221046448E-001;5.715812742710114E-002;-3.667958935693605E-006;-5.594691261649132E-003;
2.403500000000000E+009;1.667355597019196E-001;5.463720858097076E-002;-4.108348803129047E-004;-5.586880724877119E-003;
2.403666666666667E+009;1.684000194072723E-001;5.223753675818443E-002;-8.383928798139095E-004;-5.572880618274212E-003;
2.403833333333334E+009;1.701196879148483E-001;4.998877644538879E-002;-1.061565708369017E-003;-5.570735316723585E-003;
2.404000000000000E+009;1.716054677963257E-001;4.803312197327614E-002;-1.597077935002744E-003;-5.497017875313759E-003;
2.404166666666667E+009;1.733673959970474E-001;4.607464745640755E-002;-1.735535683110356E-003;-5.318733863532543E-003;
2.404333333333334E+009;1.751087158918381E-001;4.427497833967209E-002;-2.014458412304521E-003;-5.211233627051115E-003;
2.404500000000000E+009;1.767991334199905E-001;4.230991005897522E-002;-2.403789199888706E-003;-4.910001996904612E-003;
2.404666666666667E+009;1.787883043289185E-001;4.102502390742302E-002;-2.562520792707801E-003;-4.630960989743471E-003;
2.404833333333334E+009;1.805372834205627E-001;3.941910713911057E-002;-2.661950187757611E-003;-4.615609534084797E-003;
2.405000000000000E+009;1.821207553148270E-001;3.865047916769981E-002;-2.926524030044675E-003;-4.182667471468449E-003;
2.405166666666667E+009;1.839040368795395E-001;3.777272254228592E-002;-2.929458627477288E-003;-4.114428535103798E-003;
2.405333333333334E+009;1.853684484958649E-001;3.700380399823189E-002;-3.024252131581307E-003;-3.811342176049948E-003;
2.405500000000000E+009;1.871988922357559E-001;3.636761382222176E-002;-3.216217504814267E-003;-3.683412447571755E-003;
2.405666666666667E+009;1.885467916727066E-001;3.589173778891563E-002;-3.151825163513422E-003;-3.432310186326504E-003;
2.405833333333334E+009;1.903578639030457E-001;3.559947013854981E-002;-3.358120331540704E-003;-3.294257214292884E-003;
2.406000000000000E+009;1.915058493614197E-001;3.535164520144463E-002;-3.373519983142614E-003;-3.246472915634513E-003;
2.406166666666667E+009;1.928411275148392E-001;3.509349375963211E-002;-3.344727214425802E-003;-3.026526421308518E-003;
2.406333333333334E+009;1.940919160842896E-001;3.516842797398567E-002;-3.556414274498820E-003;-2.877097576856613E-003;
2.406500000000000E+009;1.953292638063431E-001;3.522382676601410E-002;-3.384476993232966E-003;-2.759197959676385E-003;
2.406666666666667E+009;1.963023245334625E-001;3.551894426345825E-002;-3.754501929506660E-003;-2.567243063822389E-003;
2.406833333333334E+009;1.971550583839417E-001;3.564009442925453E-002;-3.637811401858926E-003;-2.327623078599572E-003;
2.407000000000000E+009;1.978538036346436E-001;3.613414987921715E-002;-3.713137470185757E-003;-2.221945440396667E-003;
2.407166666666667E+009;1.984941661357880E-001;3.593105077743530E-002;-3.667263314127922E-003;-2.039820188656449E-003;
2.407333333333334E+009;1.987773329019547E-001;3.639865294098854E-002;-3.591052955016494E-003;-1.993386540561914E-003;
2.407500000000000E+009;1.990043669939041E-001;3.680340573191643E-002;-3.654068103060126E-003;-1.747205504216254E-003;
2.407666666666667E+009;1.994633227586746E-001;3.715360909700394E-002;-3.852399764582515E-003;-1.624961267225444E-003;
2.407833333333334E+009;1.990963965654373E-001;3.727281466126442E-002;-3.646559547632933E-003;-1.567883999086916E-003;
2.408000000000000E+009;1.993153989315033E-001;3.746357187628746E-002;-3.566633211448789E-003;-1.314532244578004E-003;
2.408166666666667E+009;1.989999711513519E-001;3.766307234764099E-002;-3.676051506772637E-003;-1.285701175220311E-003;
2.408333333333334E+009;1.985323429107666E-001;3.731043636798859E-002;-3.594078123569489E-003;-1.028113882057369E-003;
2.408500000000000E+009;1.981834620237351E-001;3.756472840905190E-002;-3.499102778732777E-003;-9.819281985983253E-004;
2.408666666666667E+009;1.975983083248138E-001;3.741714730858803E-002;-3.563522128388286E-003;-7.113188621588051E-004;
2.408833333333334E+009;1.970823407173157E-001;3.703065216541290E-002;-3.430614946410060E-003;-7.816540892235935E-004;
2.409000000000000E+009;1.960913687944412E-001;3.656238317489624E-002;-3.311292035505176E-003;-6.918109138496220E-004;
2.409166666666667E+009;1.951145678758621E-001;3.585330769419670E-002;-3.183507826179266E-003;-5.874529597349465E-004;
2.409333333333334E+009;1.941915899515152E-001;3.543800115585327E-002;-3.071105573326349E-003;-5.608479841612279E-004;
2.409500000000000E+009;1.929282546043396E-001;3.456131368875504E-002;-3.004532773047686E-003;-4.749396175611764E-004;
2.409666666666667E+009;1.917894929647446E-001;3.339491039514542E-002;-2.934877062216401E-003;-5.276336451061070E-004;
2.409833333333334E+009;1.906540095806122E-001;3.242099285125732E-002;-2.901927568018436E-003;-5.191446398384869E-004;
2.410000000000000E+009;1.894666850566864E-001;3.092989511787891E-002;-2.880173036828637E-003;-5.747629911638796E-004;
2.410166666666667E+009;1.881878525018692E-001;2.945947833359242E-002;-2.907298970967531E-003;-5.613276734948158E-004;
2.410333333333334E+009;1.869051009416580E-001;2.795720100402832E-002;-2.898106584325433E-003;-6.634846213273704E-004;
2.410500000000000E+009;1.856257617473602E-001;2.617751620709896E-002;-2.949944930151105E-003;-6.649593124166131E-004;
2.410666666666667E+009;1.844715476036072E-001;2.411030232906342E-002;-3.052590182051063E-003;-6.316136568784714E-004;
2.410833333333334E+009;1.835854053497315E-001;2.224036678671837E-002;-2.954754745587707E-003;-7.728125783614814E-004;
2.411000000000000E+009;1.825801432132721E-001;2.011814899742603E-002;-3.219118341803551E-003;-7.073705201037228E-004;
2.411166666666667E+009;1.814362406730652E-001;1.803446933627129E-002;-3.087508259341121E-003;-7.653550710529089E-004;
2.411333333333334E+009;1.804837733507156E-001;1.539419963955879E-002;-3.163767512887716E-003;-5.067617166787386E-004;
2.411500000000000E+009;1.797103434801102E-001;1.318968366831541E-002;-3.275534836575389E-003;-5.662034382112324E-004;
2.411666666666667E+009;1.792844533920288E-001;1.071593072265387E-002;-3.291845088824630E-003;-5.118489498272538E-004;
2.411833333333334E+009;1.785290986299515E-001;8.269124664366245E-003;-3.392738522961736E-003;-5.293239955790341E-004;
2.412000000000000E+009;1.783308684825897E-001;5.609640385955572E-003;-3.382923314347863E-003;-4.196087247692049E-004;
2.412166666666667E+009;1.781335175037384E-001;3.277813550084829E-003;-3.415928222239018E-003;-3.282429825048894E-004;
2.412333333333334E+009;1.779995560646057E-001;6.708641303703189E-004;-3.469591261819005E-003;-3.462487948127091E-004;
2.412500000000000E+009;1.782556027173996E-001;-2.269819378852844E-003;-3.665001131594181E-003;-2.525293093640357E-004;
2.412666666666667E+009;1.784505397081375E-001;-4.812068771570921E-003;-3.773338394239545E-003;-3.788286412600428E-004;
2.412833333333334E+009;1.788500994443893E-001;-7.576891686767340E-003;-3.802516497671604E-003;-1.163873021141626E-004;
2.413000000000000E+009;1.793162524700165E-001;-1.002705376595259E-002;-3.954533953219652E-003;-2.008185219892766E-005;
2.413166666666667E+009;1.801012456417084E-001;-1.260118093341589E-002;-3.962894435971975E-003;-1.051188737619668E-004;
2.413333333333334E+009;1.809301972389221E-001;-1.536298915743828E-002;-4.100377205759287E-003;7.873027789173648E-005;
2.413500000000000E+009;1.816175431013107E-001;-1.776849478483200E-002;-4.270197357982397E-003;1.711930090095848E-004;
2.413666666666667E+009;1.827300339937210E-001;-2.029050886631012E-002;-4.349811933934689E-003;4.067934060003609E-004;
2.413833333333334E+009;1.837852895259857E-001;-2.273907139897347E-002;-4.440407268702984E-003;6.103361956775188E-004;
2.414000000000000E+009;1.848356276750565E-001;-2.493708580732346E-002;-4.668829496949911E-003;7.327772327698767E-004;
2.414166666666667E+009;1.862284392118454E-001;-2.702466212213039E-002;-4.637758713215590E-003;1.023885793983936E-003;
2.414333333333334E+009;1.872801780700684E-001;-2.935917675495148E-002;-4.519221372902393E-003;1.325572724454105E-003;
2.414500000000000E+009;1.885398775339127E-001;-3.117616288363934E-002;-4.640299826860428E-003;1.653771614655852E-003;
2.414666666666667E+009;1.898472905158997E-001;-3.290049731731415E-002;-4.575002007186413E-003;1.815708354115486E-003;
2.414833333333334E+009;1.911588758230209E-001;-3.470310196280479E-002;-4.538761917501688E-003;1.842231373302639E-003;
2.415000000000000E+009;1.923667937517166E-001;-3.616745397448540E-002;-4.529274534434080E-003;2.164219506084919E-003;
2.415166666666667E+009;1.938601881265640E-001;-3.756473958492279E-002;-4.329981748014689E-003;2.448688726872206E-003;
2.415333333333334E+009;1.951056718826294E-001;-3.869039192795754E-002;-4.148349631577730E-003;2.707265783101320E-003;
2.415500000000000E+009;1.965324878692627E-001;-3.969453275203705E-002;-4.090078640729189E-003;2.779293106868863E-003;
2.415666666666667E+009;1.977800279855728E-001;-4.072009027004242E-002;-4.050342366099358E-003;3.015421563759446E-003;
2.415833333333334E+009;1.987842470407486E-001;-4.143585637211800E-002;-4.093871451914311E-003;3.290398512035608E-003;
2.416000000000000E+009;1.999030411243439E-001;-4.221849516034126E-002;-3.888330888003111E-003;3.176723374053836E-003;
2.416166666666667E+009;2.010435163974762E-001;-4.286526516079903E-002;-3.648726735264063E-003;3.499744227156043E-003;
2.416333333333334E+009;2.020196467638016E-001;-4.324103891849518E-002;-3.572245594114065E-003;3.664042102172971E-003;
2.416500000000000E+009;2.027410566806793E-001;-4.359663650393486E-002;-3.495246637612581E-003;3.788382513448596E-003;
2.416666666666667E+009;2.033359557390213E-001;-4.395449906587601E-002;-3.207498230040073E-003;3.949951846152544E-003;
2.416833333333334E+009;2.038876265287399E-001;-4.399406909942627E-002;-3.076924709603190E-003;3.985111601650715E-003;
2.417000000000000E+009;2.042698264122009E-001;-4.403359815478325E-002;-2.951107919216156E-003;4.159143194556236E-003;
2.417166666666667E+009;2.043654173612595E-001;-4.381216689944267E-002;-2.754789544269443E-003;4.295445978641510E-003;
2.417333333333334E+009;2.044506222009659E-001;-4.358083754777908E-002;-2.684768522158265E-003;4.231065511703491E-003;
2.417500000000000E+009;2.045930027961731E-001;-4.351643472909927E-002;-2.510986989364028E-003;4.327451344579458E-003;
2.417666666666667E+009;2.042730897665024E-001;-4.303073510527611E-002;-2.326861256733537E-003;4.453910049051046E-003;
2.417833333333334E+009;2.041749656200409E-001;-4.271316900849342E-002;-2.147515304386616E-003;4.478984512388706E-003;
2.418000000000000E+009;2.039063274860382E-001;-4.222426190972328E-002;-2.180037321522832E-003;4.586345050483942E-003;
2.418166666666667E+009;2.032446563243866E-001;-4.193460568785667E-002;-1.867231098003686E-003;4.793292842805386E-003;
2.418333333333334E+009;2.024801671504974E-001;-4.156963527202606E-002;-1.649598358199000E-003;4.766086116433144E-003;
2.418500000000000E+009;2.017761468887329E-001;-4.136145114898682E-002;-1.557186362333596E-003;4.963073879480362E-003;
2.418666666666667E+009;2.010170668363571E-001;-4.089478030800819E-002;-1.433645840734243E-003;4.912299569696188E-003;
2.418833333333334E+009;1.997895091772080E-001;-4.084776341915131E-002;-1.308882026933134E-003;4.989597480744124E-003;
2.419000000000000E+009;1.985837519168854E-001;-4.076114296913147E-002;-1.159008592367172E-003;5.141888279467821E-003;
2.419166666666667E+009;1.974339783191681E-001;-4.060048609972000E-002;-8.617843850515783E-004;5.257057491689920E-003;
2.419333333333334E+009;1.960173249244690E-001;-4.089206084609032E-002;-7.051473367027938E-004;5.304445046931505E-003;
2.419500000000000E+009;1.946784853935242E-001;-4.094855487346649E-002;-3.340149996802211E-004;5.279416684061289E-003;
2.419666666666667E+009;1.928669512271881E-001;-4.151818528771401E-002;-1.564897975185886E-004;5.363502539694309E-003;
2.419833333333334E+009;1.912746727466583E-001;-4.189115017652512E-002;2.594760153442621E-004;5.507784429937601E-003;
2.420000000000000E+009;1.896259486675263E-001;-4.241122677922249E-002;4.033991426695138E-004;5.344772245734930E-003;
2.420166666666667E+009;1.879084259271622E-001;-4.303313419222832E-002;7.319736760109663E-004;5.319514311850071E-003;
2.420333333333334E+009;1.859592050313950E-001;-4.404187202453613E-002;9.124428615905345E-004;5.136773455888033E-003;
2.420500000000000E+009;1.841092854738236E-001;-4.505981504917145E-002;1.177710946649313E-003;5.126048810780048E-003;
2.420666666666667E+009;1.822913438081741E-001;-4.585303738713265E-002;1.207448309287429E-003;4.910451825708151E-003;
2.420833333333334E+009;1.805012375116348E-001;-4.716793820261955E-002;1.427837763912976E-003;4.724906757473946E-003;
2.421000000000000E+009;1.787820309400559E-001;-4.855100810527802E-002;1.624889788217843E-003;4.617652390152216E-003;
2.421166666666667E+009;1.770234555006027E-001;-5.016802251338959E-002;1.757176592946053E-003;4.485766403377056E-003;
2.421333333333334E+009;1.750544011592865E-001;-5.166223272681236E-002;1.791667658835650E-003;4.406652413308621E-003;
2.421500000000000E+009;1.733778715133667E-001;-5.347757413983345E-002;1.783812418580055E-003;4.181630443781614E-003;
2.421666666666667E+009;1.719917505979538E-001;-5.536566674709320E-002;1.941396389156580E-003;4.071067087352276E-003;
2.421833333333334E+009;1.705154776573181E-001;-5.707643181085587E-002;2.083487110212445E-003;4.077810794115067E-003;
2.422000000000000E+009;1.690466403961182E-001;-5.893044918775559E-002;2.072624396532774E-003;4.071211908012629E-003;
2.422166666666667E+009;1.678916513919830E-001;-6.122345849871635E-002;2.124435966834426E-003;4.095177631825209E-003;
2.422333333333334E+009;1.666323244571686E-001;-6.340250372886658E-002;2.133468165993691E-003;3.955313004553318E-003;
2.422500000000000E+009;1.655488461256027E-001;-6.532321125268936E-002;2.224131487309933E-003;3.861096920445561E-003;
2.422666666666667E+009;1.645406186580658E-001;-6.760911643505096E-002;2.513382816687226E-003;3.776826430112124E-003;
2.422833333333334E+009;1.639046967029572E-001;-6.983762979507446E-002;2.457439899444580E-003;3.726312657818198E-003;
2.423000000000000E+009;1.631330698728561E-001;-7.217901200056076E-002;2.686284249648452E-003;3.423033514991403E-003;
2.423166666666667E+009;1.625129431486130E-001;-7.427459955215454E-002;2.651695394888520E-003;3.395955311134458E-003;
2.423333333333334E+009;1.620483100414276E-001;-7.655925303697586E-002;2.981798024848104E-003;3.354119369760156E-003;
2.423500000000000E+009;1.617648452520371E-001;-7.841885089874268E-002;2.878388622775674E-003;3.183797001838684E-003;
2.423666666666667E+009;1.616664677858353E-001;-8.074727654457092E-002;3.172692144289613E-003;3.065391909331083E-003;
2.423833333333334E+009;1.615578234195709E-001;-8.291429281234741E-002;3.179892897605896E-003;2.842818386852741E-003;
2.424000000000000E+009;1.615351289510727E-001;-8.490562438964844E-002;3.417796455323696E-003;2.784271724522114E-003;
2.424166666666667E+009;1.617983281612396E-001;-8.666146546602249E-002;3.283029887825251E-003;2.533192047849298E-003;
2.424333333333334E+009;1.619803011417389E-001;-8.867853134870529E-002;3.273148322477937E-003;2.372548682615161E-003;
2.424500000000000E+009;1.624157726764679E-001;-9.069501608610153E-002;3.352642292156816E-003;2.294053323566914E-003;
2.424666666666667E+009;1.626372784376144E-001;-9.233006834983826E-002;3.355946857482195E-003;2.107420703396201E-003;
2.424833333333334E+009;1.632918864488602E-001;-9.397897869348526E-002;3.396908985450864E-003;1.818599645048380E-003;
2.425000000000000E+009;1.639363765716553E-001;-9.555942565202713E-002;3.350953804329038E-003;1.777395023964346E-003;
2.425166666666667E+009;1.643151193857193E-001;-9.680093824863434E-002;3.369300626218319E-003;1.574876136146486E-003;
2.425333333333334E+009;1.648866236209869E-001;-9.810004383325577E-002;3.393729217350483E-003;1.634816406294704E-003;
2.425500000000000E+009;1.655822396278381E-001;-9.930520504713059E-002;3.184623550623655E-003;1.417841180227697E-003;
2.425666666666667E+009;1.661443859338760E-001;-1.002532467246056E-001;3.142245812341571E-003;1.391066820360720E-003;
2.425833333333334E+009;1.667095273733139E-001;-1.013425588607788E-001;3.145198803395033E-003;1.320337411016226E-003;
2.426000000000000E+009;1.674763709306717E-001;-1.019782721996307E-001;3.025445854291320E-003;1.291795051656663E-003;
2.426166666666667E+009;1.681271642446518E-001;-1.027522459626198E-001;3.019392490386963E-003;1.206816523335874E-003;
2.426333333333334E+009;1.685659885406494E-001;-1.034125909209251E-001;3.001987934112549E-003;1.210343907587230E-003;
2.426500000000000E+009;1.693145185709000E-001;-1.037307307124138E-001;2.917926991358399E-003;1.144560868851841E-003;
2.426666666666667E+009;1.700619310140610E-001;-1.042212024331093E-001;2.892134012654424E-003;1.114284736104310E-003;
2.426833333333334E+009;1.705559790134430E-001;-1.045041382312775E-001;3.049269318580627E-003;1.208501285873354E-003;
2.427000000000000E+009;1.708716303110123E-001;-1.048356294631958E-001;2.893641591072083E-003;1.122865010984242E-003;
2.427166666666667E+009;1.713444441556931E-001;-1.049366816878319E-001;3.013537498190999E-003;1.118127256631851E-003;
2.427333333333334E+009;1.715929806232452E-001;-1.051980555057526E-001;2.942304126918316E-003;9.709089645184577E-004;
2.427500000000000E+009;1.717036068439484E-001;-1.053319498896599E-001;3.067555371671915E-003;9.214905439876020E-004;
2.427666666666667E+009;1.716639846563339E-001;-1.053310260176659E-001;3.139898413792253E-003;7.991063175722957E-004;
