# Version 1.00
#
freq[Hz];re:Trc1_S11;im:Trc1_S11;re:Trc2_S21;im:Trc2_S21;
2.400000000000000E+009;1.561882644891739E-001;6.196804717183113E-002;4.287274088710547E-003;1.403424539603293E-003;
2.400166666666667E+009;1.560983508825302E-001;6.012515351176262E-002;4.291608463972807E-003;1.324585988186300E-003;
2.400333333333334E+009;1.558009386062622E-001;5.808781087398529E-002;4.308844450861216E-003;1.270684762857854E-003;
2.400500000000000E+009;1.559944599866867E-001;5.592337250709534E-002;4.367257468402386E-003;1.280101947486401E-003;
2.400666666666667E+009;1.559831351041794E-001;5.396180227398872E-002;4.449917934834957E-003;1.080294023267925E-003;
2.400833333333334E+009;1.562951803207398E-001;5.191117897629738E-002;4.466512240469456E-003;9.703834075480700E-004;
2.401000000000000E+009;1.565464287996292E-001;4.983187839388847E-002;4.467706196010113E-003;8.252824773080647E-004;
2.401166666666667E+009;1.567834615707398E-001;4.747303202748299E-002;4.268913529813290E-003;5.503878928720951E-004;
2.401333333333334E+009;1.571368277072907E-001;4.535838216543198E-002;4.421615507453680E-003;5.434608319774270E-004;
2.401500000000000E+009;1.577073186635971E-001;4.320674762129784E-002;4.533417057245970E-003;3.974973224103451E-004;
2.401666666666667E+009;1.580619513988495E-001;4.120465740561485E-002;4.555238876491785E-003;3.539223980624229E-004;
2.401833333333334E+009;1.585441976785660E-001;3.907953575253487E-002;4.504690878093243E-003;1.178064703708515E-004;
2.402000000000000E+009;1.591334491968155E-001;3.723700717091560E-002;4.414603114128113E-003;2.618129474285524E-005;
2.402166666666667E+009;1.597402393817902E-001;3.502574563026428E-002;4.397397395223379E-003;9.356714144814760E-005;
2.402333333333334E+009;1.605977118015289E-001;3.319735825061798E-002;4.379784688353539E-003;-2.792860614135861E-004;
2.402500000000000E+009;1.614498347043991E-001;3.156274929642677E-002;4.379751626402140E-003;-3.755232319235802E-004;
2.402666666666667E+009;1.623430848121643E-001;2.970779500901699E-002;4.337692167609930E-003;-3.289377782493830E-004;
2.402833333333334E+009;1.631396114826202E-001;2.814818359911442E-002;4.353264812380076E-003;-6.155746523290873E-004;
2.403000000000000E+009;1.639799624681473E-001;2.654832042753696E-002;4.499686416238546E-003;-6.215504254214466E-004;
2.403166666666667E+009;1.652772128582001E-001;2.498389780521393E-002;4.209963139146566E-003;-7.422237540595233E-004;
2.403333333333334E+009;1.662772595882416E-001;2.375993691384792E-002;4.363392479717732E-003;-9.184184600599110E-004;
2.403500000000000E+009;1.672286242246628E-001;2.243670634925365E-002;4.244574811309576E-003;-1.031661638990045E-003;
2.403666666666667E+009;1.683280020952225E-001;2.111503295600414E-002;4.411082714796066E-003;-1.190366223454475E-003;
2.403833333333334E+009;1.695072948932648E-001;1.995741575956345E-002;4.327291157096624E-003;-1.424730638973415E-003;
2.404000000000000E+009;1.705362349748612E-001;1.891247741878033E-002;4.104771185666323E-003;-1.387595315463841E-003;
2.404166666666667E+009;1.716908961534500E-001;1.792825013399124E-002;4.022002685815096E-003;-1.533590024337173E-003;
2.404333333333334E+009;1.725835204124451E-001;1.704364642500877E-002;3.997710533440113E-003;-1.646442804485560E-003;
2.404500000000000E+009;1.735357791185379E-001;1.619793102145195E-002;4.005554132163525E-003;-1.857063849456608E-003;
2.404666666666667E+009;1.746760904788971E-001;1.555618178099394E-002;3.968408331274986E-003;-1.977486303076148E-003;
2.404833333333334E+009;1.753990054130554E-001;1.489561516791582E-002;3.901783376932144E-003;-2.089509274810553E-003;
2.405000000000000E+009;1.762639284133911E-001;1.442781370133162E-002;3.836836665868759E-003;-2.257823245599866E-003;
2.405166666666667E+009;1.772541403770447E-001;1.393728144466877E-002;3.863692982122302E-003;-2.409709850326181E-003;
2.405333333333334E+009;1.779233217239380E-001;1.348542422056198E-002;3.544816281646490E-003;-2.551547484472394E-003;
2.405500000000000E+009;1.785518825054169E-001;1.307925302535296E-002;3.514051437377930E-003;-2.602130174636841E-003;
2.405666666666667E+009;1.792316585779190E-001;1.285720057785511E-002;3.585362574085593E-003;-2.521549584344029E-003;
2.405833333333334E+009;1.795696169137955E-001;1.262787450104952E-002;3.484420245513320E-003;-2.750350628048182E-003;
2.406000000000000E+009;1.802277266979218E-001;1.224078051745892E-002;3.292157081887126E-003;-2.855828497558832E-003;
2.406166666666667E+009;1.803620159626007E-001;1.228261087089777E-002;3.123751608654857E-003;-2.888989169150591E-003;
2.406333333333334E+009;1.810060441493988E-001;1.188899669796228E-002;2.954408293589950E-003;-3.049259074032307E-003;
2.406500000000000E+009;1.810669451951981E-001;1.171169988811016E-002;3.000148106366396E-003;-3.087989054620266E-003;
2.406666666666667E+009;1.809158325195313E-001;1.157190185040236E-002;2.653319854289293E-003;-3.175959922373295E-003;
2.406833333333334E+009;1.810466200113297E-001;1.123317424207926E-002;2.893452532589436E-003;-3.396265208721161E-003;
2.407000000000000E+009;1.810601502656937E-001;1.105233002454042E-002;2.731931162998080E-003;-3.527185413986445E-003;
2.407166666666667E+009;1.809671819210053E-001;1.082827150821686E-002;2.495874417945743E-003;-3.304304555058479E-003;
2.407333333333334E+009;1.807593256235123E-001;1.026962045580149E-002;2.363156527280808E-003;-3.310011001303792E-003;
2.407500000000000E+009;1.803051382303238E-001;1.000964548438788E-002;2.327068941667676E-003;-3.422700567170978E-003;
2.407666666666667E+009;1.800196319818497E-001;9.484609588980675E-003;2.143307821825147E-003;-3.430322511121631E-003;
2.407833333333334E+009;1.794561892747879E-001;8.959638886153698E-003;2.234883140772581E-003;-3.522923914715648E-003;
2.408000000000000E+009;1.789153516292572E-001;8.077770471572876E-003;2.088155131787062E-003;-3.722652560099959E-003;
2.408166666666667E+009;1.783805638551712E-001;7.502971682697535E-003;2.015147823840380E-003;-3.563215956091881E-003;
2.408333333333334E+009;1.779964864253998E-001;6.756332237273455E-003;1.780694234184921E-003;-3.600295167416334E-003;
2.408500000000000E+009;1.771303266286850E-001;5.840059835463762E-003;1.733502955175936E-003;-3.630598308518529E-003;
2.408666666666667E+009;1.763320863246918E-001;4.831917118281126E-003;1.678904518485069E-003;-3.721423447132111E-003;
2.408833333333334E+009;1.756603121757507E-001;3.810290247201920E-003;1.674344646744430E-003;-3.787333611398935E-003;
2.409000000000000E+009;1.747659295797348E-001;2.639611950144172E-003;1.438459963537753E-003;-3.754723351448774E-003;
2.409166666666667E+009;1.741042584180832E-001;1.414675847627223E-003;1.382335904054344E-003;-3.826344152912498E-003;
2.409333333333334E+009;1.733830869197846E-001;-1.111764795496129E-004;1.455365447327495E-003;-3.881860524415970E-003;
2.409500000000000E+009;1.725717633962631E-001;-1.628804253414273E-003;1.249451655894518E-003;-3.874009009450674E-003;
2.409666666666667E+009;1.716957539319992E-001;-3.141069784760475E-003;1.102045760490000E-003;-3.981683868914843E-003;
2.409833333333334E+009;1.708940416574478E-001;-4.708469845354557E-003;1.016505877487361E-003;-3.915851004421711E-003;
2.410000000000000E+009;1.703461706638336E-001;-6.213367916643620E-003;9.074189583770931E-004;-3.993602469563484E-003;
2.410166666666667E+009;1.697963625192642E-001;-8.003503084182739E-003;7.974340114742518E-004;-4.131608642637730E-003;
2.410333333333334E+009;1.692185550928116E-001;-9.806162677705288E-003;7.329871295951307E-004;-4.139519762247801E-003;
2.410500000000000E+009;1.685869097709656E-001;-1.176844350993633E-002;6.641468498855829E-004;-4.160009790211916E-003;
2.410666666666667E+009;1.680181324481964E-001;-1.373914256691933E-002;3.695657651405782E-004;-4.111542832106352E-003;
2.410833333333334E+009;1.677620261907578E-001;-1.556305307894945E-002;2.912179916165769E-004;-4.195534624159336E-003;
2.411000000000000E+009;1.673192977905273E-001;-1.742208749055862E-002;1.552032772451639E-004;-4.280880559235811E-003;
2.411166666666667E+009;1.669861078262329E-001;-1.961304806172848E-002;2.842640242306516E-005;-4.302648827433586E-003;
2.411333333333334E+009;1.669028401374817E-001;-2.158061601221561E-002;-1.321958843618631E-004;-4.246087744832039E-003;
2.411500000000000E+009;1.668151021003723E-001;-2.385205775499344E-002;-1.918908383231610E-004;-4.203568212687969E-003;
2.411666666666667E+009;1.669927090406418E-001;-2.580748125910759E-002;-4.399503814056516E-004;-4.275382962077856E-003;
2.411833333333334E+009;1.668885201215744E-001;-2.774424105882645E-002;-6.509356317110360E-004;-4.174165427684784E-003;
2.412000000000000E+009;1.672354638576508E-001;-2.989777363836765E-002;-7.437557214871049E-004;-4.217329435050488E-003;
2.412166666666667E+009;1.673321723937988E-001;-3.190768510103226E-002;-9.112539119087160E-004;-4.224733915179968E-003;
2.412333333333334E+009;1.677442640066147E-001;-3.365832939743996E-002;-1.041578943841159E-003;-4.208844155073166E-003;
2.412500000000000E+009;1.678894162178040E-001;-3.561269864439964E-002;-1.329146907664836E-003;-4.095160402357578E-003;
2.412666666666667E+009;1.685237735509872E-001;-3.763599693775177E-002;-1.426258357241750E-003;-4.175358917564154E-003;
2.412833333333334E+009;1.690848320722580E-001;-3.949975967407227E-002;-1.472801552154124E-003;-3.955748397856951E-003;
2.413000000000000E+009;1.695517897605896E-001;-4.127704352140427E-002;-1.769277849234641E-003;-3.885790472850204E-003;
2.413166666666667E+009;1.700548082590103E-001;-4.298241436481476E-002;-1.784448744729161E-003;-3.979578614234924E-003;
2.413333333333334E+009;1.705742925405502E-001;-4.462940618395805E-002;-1.797818928025663E-003;-3.732897574082017E-003;
2.413500000000000E+009;1.713537722826004E-001;-4.616470262408257E-002;-2.057405421510339E-003;-3.673468949273229E-003;
2.413666666666667E+009;1.720071583986282E-001;-4.776908457279205E-002;-2.185514429584146E-003;-3.506180830299854E-003;
2.413833333333334E+009;1.725611090660095E-001;-4.910938814282417E-002;-2.353038871660829E-003;-3.390729660168290E-003;
2.414000000000000E+009;1.732691228389740E-001;-5.032648146152496E-002;-2.434025285765529E-003;-3.342886455357075E-003;
2.414166666666667E+009;1.739719063043594E-001;-5.148090422153473E-002;-2.531669335439801E-003;-3.204331267625094E-003;
2.414333333333334E+009;1.746978908777237E-001;-5.269015580415726E-002;-2.641580533236265E-003;-3.026897786185145E-003;
2.414500000000000E+009;1.753161996603012E-001;-5.364966765046120E-002;-2.586487447842956E-003;-2.938282210379839E-003;
2.414666666666667E+009;1.758512705564499E-001;-5.460958927869797E-002;-2.770443446934223E-003;-2.827666234225035E-003;
2.414833333333334E+009;1.762928664684296E-001;-5.550895631313324E-002;-2.878649160265923E-003;-2.585226669907570E-003;
2.415000000000000E+009;1.769063919782639E-001;-5.608708038926125E-002;-2.899896120652556E-003;-2.651274669915438E-003;
2.415166666666667E+009;1.774324327707291E-001;-5.680715292692184E-002;-2.994671929627657E-003;-2.370255999267101E-003;
2.415333333333334E+009;1.778177767992020E-001;-5.740030854940414E-002;-3.038277151063085E-003;-2.323131309822202E-003;
2.415500000000000E+009;1.780821532011032E-001;-5.773209035396576E-002;-2.911027520895004E-003;-2.130854176357389E-003;
2.415666666666667E+009;1.783527433872223E-001;-5.820271000266075E-002;-2.992637222632766E-003;-2.004550537094474E-003;
2.415833333333334E+009;1.786018759012222E-001;-5.846105888485909E-002;-3.133635036647320E-003;-1.882413635030389E-003;
2.416000000000000E+009;1.786005944013596E-001;-5.894702672958374E-002;-3.100349334999919E-003;-1.688218908384442E-003;
2.416166666666667E+009;1.788367778062820E-001;-5.896887183189392E-002;-3.209376474842429E-003;-1.646673539653420E-003;
2.416333333333334E+009;1.784129589796066E-001;-5.914479121565819E-002;-3.207104513421655E-003;-1.476479694247246E-003;
2.416500000000000E+009;1.783332228660584E-001;-5.946666002273560E-002;-3.216279204934835E-003;-1.258435659110546E-003;
2.416666666666667E+009;1.781214773654938E-001;-5.950266495347023E-002;-3.195082070305944E-003;-1.233714865520597E-003;
2.416833333333334E+009;1.779091060161591E-001;-5.981605872511864E-002;-3.114666324108839E-003;-1.124379807151854E-003;
2.417000000000000E+009;1.772196888923645E-001;-5.987821891903877E-002;-3.169453935697675E-003;-1.021472271531820E-003;
2.417166666666667E+009;1.766574382781982E-001;-5.988006666302681E-002;-3.101409878581762E-003;-8.260116446763277E-004;
2.417333333333334E+009;1.760279387235642E-001;-5.994296818971634E-002;-3.073644125834107E-003;-7.241112762130797E-004;
2.417500000000000E+009;1.752118170261383E-001;-6.029772385954857E-002;-3.096049884334207E-003;-4.771017411258072E-004;
2.417666666666667E+009;1.745421588420868E-001;-6.026282906532288E-002;-3.059063339605928E-003;-5.069574108347297E-004;
2.417833333333334E+009;1.735927015542984E-001;-6.051083281636238E-002;-2.951813396066427E-003;-5.472781485877931E-004;
2.418000000000000E+009;1.724533587694168E-001;-6.091989949345589E-002;-2.900171792134643E-003;-3.790369082707912E-004;
2.418166666666667E+009;1.714227348566055E-001;-6.104920059442520E-002;-2.827592194080353E-003;-2.619881124701351E-004;
2.418333333333334E+009;1.704729944467545E-001;-6.148728355765343E-002;-2.784961834549904E-003;-1.893249136628583E-004;
2.418500000000000E+009;1.693191826343536E-001;-6.190630793571472E-002;-2.855134662240744E-003;-2.642320396262221E-005;
2.418666666666667E+009;1.681244969367981E-001;-6.245582923293114E-002;-2.696306910365820E-003;-5.576430339715444E-006;
2.418833333333334E+009;1.666926294565201E-001;-6.297324597835541E-002;-2.684776904061437E-003;-5.100759517517872E-005;
2.419000000000000E+009;1.653750836849213E-001;-6.358655542135239E-002;-2.557668602094054E-003;-3.122102498309687E-005;
2.419166666666667E+009;1.642077416181564E-001;-6.446650624275208E-002;-2.514143008738756E-003;2.935830161732156E-005;
2.419333333333334E+009;1.626998037099838E-001;-6.496395915746689E-002;-2.662966493517160E-003;1.891398715088144E-004;
2.419500000000000E+009;1.613601595163345E-001;-6.620310992002487E-002;-2.461179159581661E-003;7.570808520540595E-005;
2.419666666666667E+009;1.603135317564011E-001;-6.715846806764603E-002;-2.432291628792882E-003;4.784862176165916E-005;
2.419833333333334E+009;1.588875949382782E-001;-6.811774522066116E-002;-2.350773196667433E-003;2.454946516081691E-004;
2.420000000000000E+009;1.577931493520737E-001;-6.923732906579971E-002;-2.361214254051447E-003;1.837573508964852E-004;
2.420166666666667E+009;1.566339731216431E-001;-7.054673135280609E-002;-2.341172425076366E-003;2.577865088824183E-004;
2.420333333333334E+009;1.555262207984924E-001;-7.179327309131622E-002;-2.070052782073617E-003;2.897877711802721E-004;
2.420500000000000E+009;1.546761989593506E-001;-7.305811345577240E-002;-2.353299874812365E-003;2.960581914521754E-004;
2.420666666666667E+009;1.535570770502091E-001;-7.461759448051453E-002;-2.336760517209768E-003;2.886120055336505E-004;
2.420833333333334E+009;1.526753157377243E-001;-7.596724480390549E-002;-2.232979750260711E-003;4.080337530467659E-004;
2.421000000000000E+009;1.518203616142273E-001;-7.770179957151413E-002;-2.298369305208325E-003;3.227121196687222E-004;
2.421166666666667E+009;1.510589271783829E-001;-7.920467853546143E-002;-2.263891277834773E-003;3.842876176349819E-004;
2.421333333333334E+009;1.505984067916870E-001;-8.106191456317902E-002;-2.231993479654193E-003;4.117327916901559E-004;
2.421500000000000E+009;1.499526500701904E-001;-8.271825313568115E-002;-2.169045852497220E-003;5.375006003305316E-004;
2.421666666666667E+009;1.495808959007263E-001;-8.438918739557266E-002;-2.390176989138126E-003;5.217586876824498E-004;
2.421833333333334E+009;1.492019891738892E-001;-8.625251799821854E-002;-2.195038832724094E-003;5.801006918773055E-004;
2.422000000000000E+009;1.489475369453430E-001;-8.803328126668930E-002;-2.244190778583288E-003;5.956507520750165E-004;
2.422166666666667E+009;1.486843824386597E-001;-8.989338576793671E-002;-2.334213349968195E-003;5.204904009588063E-004;
2.422333333333334E+009;1.486885398626328E-001;-9.166706353425980E-002;-2.157297218218446E-003;6.408136105164886E-004;
2.422500000000000E+009;1.486018300056458E-001;-9.333351999521256E-002;-2.121829194948077E-003;7.114014588296413E-004;
2.422666666666667E+009;1.486556529998779E-001;-9.500381350517273E-002;-2.090372843667865E-003;7.183588459156454E-004;
2.422833333333334E+009;1.488554179668427E-001;-9.693472832441330E-002;-2.275535836815834E-003;8.341338252648711E-004;
2.423000000000000E+009;1.490845680236816E-001;-9.856382757425308E-002;-2.168872626498342E-003;8.827246492728591E-004;
2.423166666666667E+009;1.494363695383072E-001;-1.003739386796951E-001;-2.276885556057096E-003;1.124027767218649E-003;
2.423333333333334E+009;1.500906944274902E-001;-1.016115248203278E-001;-2.173090120777488E-003;1.147762755863369E-003;
2.423500000000000E+009;1.503253132104874E-001;-1.032924205064774E-001;-2.101321704685688E-003;1.227892003953457E-003;
2.423666666666667E+009;1.506277471780777E-001;-1.048559173941612E-001;-2.079469617456198E-003;1.332074869424105E-003;
2.423833333333334E+009;1.512992233037949E-001;-1.062307134270668E-001;-2.002056688070297E-003;1.425273832865059E-003;
2.424000000000000E+009;1.517521739006043E-001;-1.075431331992149E-001;-2.018741331994534E-003;1.431212993338704E-003;
2.424166666666667E+009;1.523386985063553E-001;-1.088605076074600E-001;-2.074210438877344E-003;1.499243313446641E-003;
2.424333333333334E+009;1.530433446168900E-001;-1.100294664502144E-001;-1.852493616752327E-003;1.552026369608939E-003;
2.424500000000000E+009;1.536087095737457E-001;-1.111193597316742E-001;-1.707459916360676E-003;1.741524436511099E-003;
2.424666666666667E+009;1.542139798402786E-001;-1.120359152555466E-001;-1.684750895947218E-003;1.754996483214200E-003;
2.424833333333334E+009;1.547324359416962E-001;-1.130402982234955E-001;-1.747614238411188E-003;1.790189417079091E-003;
2.425000000000000E+009;1.552248448133469E-001;-1.138616353273392E-001;-1.567530562169850E-003;1.768413232639432E-003;
2.425166666666667E+009;1.556076705455780E-001;-1.146962195634842E-001;-1.494075055234134E-003;1.872814027592540E-003;
2.425333333333334E+009;1.559053659439087E-001;-1.152687594294548E-001;-1.378786284476519E-003;1.982368063181639E-003;
2.425500000000000E+009;1.565571725368500E-001;-1.159039884805679E-001;-1.203417778015137E-003;1.991904107853770E-003;
2.425666666666667E+009;1.565674394369125E-001;-1.164067909121513E-001;-1.104150665923953E-003;1.795373274944723E-003;
2.425833333333334E+009;1.569365859031677E-001;-1.167952194809914E-001;-1.048092381097376E-003;2.027621958404779E-003;
2.426000000000000E+009;1.570629477500916E-001;-1.173031106591225E-001;-9.201708598993719E-004;1.906957593746483E-003;
2.426166666666667E+009;1.573283374309540E-001;-1.175191327929497E-001;-7.970664300955832E-004;1.982981339097023E-003;
2.426333333333334E+009;1.571996957063675E-001;-1.177620142698288E-001;-5.658213631249964E-004;1.834820606745780E-003;
2.426500000000000E+009;1.571893543004990E-001;-1.178735941648483E-001;-5.582500598393381E-004;1.889530569314957E-003;
2.426666666666667E+009;1.571566909551621E-001;-1.178454905748367E-001;-5.581298028118908E-004;1.829310553148389E-003;
2.426833333333334E+009;1.567604839801788E-001;-1.180670559406281E-001;-4.351807874627411E-004;1.791789080016315E-003;
2.427000000000000E+009;1.563998311758041E-001;-1.181471049785614E-001;-4.124296538066119E-004;1.799369929358363E-003;
2.427166666666667E+009;1.558910161256790E-001;-1.180887669324875E-001;-2.994572569150478E-004;1.562008634209633E-003;
2.427333333333334E+009;1.553345471620560E-001;-1.180359721183777E-001;-5.808604764752090E-004;1.652991631999612E-003;
2.427500000000000E+009;1.547897011041641E-001;-1.181297674775124E-001;-2.254034916404635E-004;1.630083541385829E-003;
2.427666666666667E+009;1.539333611726761E-001;-1.182575821876526E-001;-1.610301987966523E-004;1.577690825797617E-003;
