# Version 1.00
#
freq[Hz];re:Trc1_S11;im:Trc1_S11;re:Trc2_S21;im:Trc2_S21;
2.400000000000000E+009;1.559912264347076E-001;6.189229711890221E-002;4.431675188243389E-003;1.451214193366468E-003;
2.400166666666667E+009;1.558684855699539E-001;6.001829728484154E-002;4.389621317386627E-003;1.392277656123042E-003;
2.400333333333334E+009;1.557773500680924E-001;5.815456435084343E-002;4.265021067112684E-003;1.187384710647166E-003;
2.400500000000000E+009;1.559437960386276E-001;5.607007071375847E-002;4.371529910713434E-003;1.006635371595621E-003;
2.400666666666667E+009;1.559970080852509E-001;5.385346338152885E-002;4.286175593733788E-003;1.013525878079236E-003;
2.400833333333334E+009;1.562815904617310E-001;5.204401910305023E-002;4.387507680803537E-003;7.749689975753427E-004;
2.401000000000000E+009;1.564835309982300E-001;4.975778609514237E-002;4.372221417725086E-003;5.522447172552347E-004;
2.401166666666667E+009;1.567910462617874E-001;4.761867970228195E-002;4.292517900466919E-003;4.184421268291771E-004;
2.401333333333334E+009;1.570946723222733E-001;4.549162462353706E-002;4.354189615696669E-003;3.966864605899900E-004;
2.401500000000000E+009;1.575939059257507E-001;4.340091720223427E-002;4.415087401866913E-003;2.257780579384416E-004;
2.401666666666667E+009;1.580680608749390E-001;4.141496494412422E-002;4.379897844046354E-003;2.396677882643417E-005;
2.401833333333334E+009;1.584478318691254E-001;3.927798569202423E-002;4.385715350508690E-003;-4.868994437856600E-005;
2.402000000000000E+009;1.590954959392548E-001;3.721044212579727E-002;4.241962451487780E-003;-1.170488612842746E-004;
2.402166666666667E+009;1.597457379102707E-001;3.513124585151672E-002;4.226696677505970E-003;-9.253503958461806E-005;
2.402333333333334E+009;1.604245603084564E-001;3.349714726209641E-002;4.319869447499514E-003;-3.712233738042414E-004;
2.402500000000000E+009;1.616297364234924E-001;3.156859800219536E-002;4.271030891686678E-003;-4.090815782546997E-004;
2.402666666666667E+009;1.623135358095169E-001;2.975569851696491E-002;4.143250640481710E-003;-6.035678670741618E-004;
2.402833333333334E+009;1.631688624620438E-001;2.821945212781429E-002;4.099564626812935E-003;-7.614573696628213E-004;
2.403000000000000E+009;1.641904711723328E-001;2.656442485749722E-002;4.104769788682461E-003;-8.992066141217947E-004;
2.403166666666667E+009;1.653243303298950E-001;2.505523152649403E-002;4.239782225340605E-003;-1.065691467374563E-003;
2.403333333333334E+009;1.662810742855072E-001;2.383222803473473E-002;4.178999457508326E-003;-1.064855023287237E-003;
2.403500000000000E+009;1.671855300664902E-001;2.252410911023617E-002;4.082403145730496E-003;-1.225005835294724E-003;
2.403666666666667E+009;1.683468669652939E-001;2.112293429672718E-002;4.176461137831211E-003;-1.318062189966440E-003;
2.403833333333334E+009;1.697775572538376E-001;2.003680728375912E-002;3.994020633399487E-003;-1.576154725626111E-003;
2.404000000000000E+009;1.705036163330078E-001;1.899178326129913E-002;3.918833564966917E-003;-1.519997254945338E-003;
2.404166666666667E+009;1.716053336858749E-001;1.803840324282646E-002;3.971082624047995E-003;-1.542124780826271E-003;
2.404333333333334E+009;1.725427210330963E-001;1.722198911011219E-002;3.868228057399392E-003;-1.809550332836807E-003;
2.404500000000000E+009;1.735567301511765E-001;1.634627580642700E-002;3.738877130672336E-003;-1.893160864710808E-003;
2.404666666666667E+009;1.745151430368424E-001;1.568863727152348E-002;3.766747424378991E-003;-1.986816292628646E-003;
2.404833333333334E+009;1.755020916461945E-001;1.508608460426331E-002;3.761978587135673E-003;-2.088366309180856E-003;
2.405000000000000E+009;1.764093190431595E-001;1.440487708896399E-002;3.611871041357517E-003;-2.246960066258907E-003;
2.405166666666667E+009;1.772894263267517E-001;1.391346286982298E-002;3.540963167324662E-003;-2.259261207655072E-003;
2.405333333333334E+009;1.780705153942108E-001;1.338585186749697E-002;3.252302063629031E-003;-2.363838022574782E-003;
2.405500000000000E+009;1.786277443170548E-001;1.318015437573195E-002;3.257380099967122E-003;-2.552078804001212E-003;
2.405666666666667E+009;1.793065071105957E-001;1.287563238292933E-002;3.180766478180885E-003;-2.527264179661870E-003;
2.405833333333334E+009;1.796865314245224E-001;1.274361554533243E-002;3.271889174357057E-003;-2.657372737303376E-003;
2.406000000000000E+009;1.801801621913910E-001;1.220434717833996E-002;3.141528461128473E-003;-2.703276462852955E-003;
2.406166666666667E+009;1.805449873209000E-001;1.228475105017424E-002;3.010917222127318E-003;-2.869395539164543E-003;
2.406333333333334E+009;1.810141503810883E-001;1.193704269826412E-002;2.911762800067663E-003;-2.967291278764606E-003;
2.406500000000000E+009;1.810930520296097E-001;1.167216524481773E-002;2.757802838459611E-003;-2.981818513944745E-003;
2.406666666666667E+009;1.809856295585632E-001;1.157021243125200E-002;2.584633883088827E-003;-3.084439318627119E-003;
2.406833333333334E+009;1.811537891626358E-001;1.128016132861376E-002;2.561488654464483E-003;-3.147764829918742E-003;
2.407000000000000E+009;1.811747997999191E-001;1.101034227758646E-002;2.349938964471221E-003;-3.176415339112282E-003;
2.407166666666667E+009;1.810501813888550E-001;1.073312666267157E-002;2.159770810976625E-003;-3.284074831753969E-003;
2.407333333333334E+009;1.807430088520050E-001;1.026432681828737E-002;2.302010077983141E-003;-3.272540168836713E-003;
2.407500000000000E+009;1.804434061050415E-001;9.993762709200382E-003;2.040833467617631E-003;-3.365119220688939E-003;
2.407666666666667E+009;1.800657361745834E-001;9.545603767037392E-003;2.083120401948690E-003;-3.409510944038630E-003;
2.407833333333334E+009;1.793802976608276E-001;8.843851275742054E-003;1.870795735158026E-003;-3.365219570696354E-003;
2.408000000000000E+009;1.789331883192062E-001;8.204683661460877E-003;1.855527516454458E-003;-3.399898530915380E-003;
2.408166666666667E+009;1.784436106681824E-001;7.520390674471855E-003;1.722600194625557E-003;-3.372378880158067E-003;
2.408333333333334E+009;1.780302077531815E-001;6.767599377781153E-003;1.771828159689903E-003;-3.581837285310030E-003;
2.408500000000000E+009;1.771617829799652E-001;5.835317540913820E-003;1.644274103455246E-003;-3.446257440373302E-003;
2.408666666666667E+009;1.763994693756104E-001;4.861494991928339E-003;1.533272909000516E-003;-3.404363989830017E-003;
2.408833333333334E+009;1.756954938173294E-001;3.636585781350732E-003;1.482816529460251E-003;-3.573988564312458E-003;
2.409000000000000E+009;1.748616397380829E-001;2.748737111687660E-003;1.406896044500172E-003;-3.564930288121104E-003;
2.409166666666667E+009;1.741051673889160E-001;1.391027239151299E-003;1.202375744469464E-003;-3.562698606401682E-003;
2.409333333333334E+009;1.734627336263657E-001;-1.204848085762933E-004;1.235174015164375E-003;-3.597942879423499E-003;
2.409500000000000E+009;1.726372539997101E-001;-1.697219326160848E-003;1.134669641032815E-003;-3.611946478486061E-003;
2.409666666666667E+009;1.717718243598938E-001;-2.953898161649704E-003;1.081844093278050E-003;-3.784489585086703E-003;
2.409833333333334E+009;1.711537539958954E-001;-4.534070380032063E-003;8.425312698818743E-004;-3.666650736704469E-003;
2.410000000000000E+009;1.705396026372910E-001;-6.284383125603199E-003;9.637824841775000E-004;-3.729918273165822E-003;
2.410166666666667E+009;1.697053313255310E-001;-8.117600344121456E-003;7.445260998792946E-004;-3.837455995380878E-003;
2.410333333333334E+009;1.691180616617203E-001;-9.928109124302864E-003;6.750868633389473E-004;-3.875678405165672E-003;
2.410500000000000E+009;1.687937080860138E-001;-1.177926082164049E-002;4.885863163508475E-004;-3.807552857324481E-003;
2.410666666666667E+009;1.681242138147354E-001;-1.381530705839396E-002;4.370778333395720E-004;-3.948993980884552E-003;
2.410833333333334E+009;1.678576469421387E-001;-1.555563323199749E-002;3.408339689485729E-004;-3.915422130376101E-003;
2.411000000000000E+009;1.675173044204712E-001;-1.759204640984535E-002;1.696371473371983E-004;-3.983115777373314E-003;
2.411166666666667E+009;1.670647561550140E-001;-1.955510862171650E-002;1.737155544105917E-004;-3.963414113968611E-003;
2.411333333333334E+009;1.669575124979019E-001;-2.153474651277065E-002;-6.162051431601867E-005;-4.104914609342814E-003;
2.411500000000000E+009;1.667996495962143E-001;-2.399407699704170E-002;-2.221303439000621E-004;-4.066899418830872E-003;
2.411666666666667E+009;1.669227927923203E-001;-2.580378204584122E-002;-3.373789077159017E-004;-4.063869826495647E-003;
2.411833333333334E+009;1.669642478227615E-001;-2.776372246444225E-002;-3.895358822774142E-004;-3.977331332862377E-003;
2.412000000000000E+009;1.672073602676392E-001;-2.984168939292431E-002;-6.514867418445647E-004;-3.945914097130299E-003;
2.412166666666667E+009;1.672283113002777E-001;-3.204788267612457E-002;-7.139226654544473E-004;-3.995439037680626E-003;
2.412333333333334E+009;1.678452193737030E-001;-3.361232951283455E-002;-8.754305308684707E-004;-3.846778534352779E-003;
2.412500000000000E+009;1.680100262165070E-001;-3.571477904915810E-002;-1.068096142262220E-003;-3.881098702549934E-003;
2.412666666666667E+009;1.684162616729736E-001;-3.768467903137207E-002;-1.289084437303245E-003;-3.919203300029039E-003;
2.412833333333334E+009;1.690742820501328E-001;-3.950840607285500E-002;-1.300175790674985E-003;-3.668024437502027E-003;
2.413000000000000E+009;1.694990694522858E-001;-4.129455983638763E-002;-1.516151591204107E-003;-3.805914428085089E-003;
2.413166666666667E+009;1.700371205806732E-001;-4.301204532384872E-002;-1.556663890369237E-003;-3.633445827290416E-003;
2.413333333333334E+009;1.705736517906189E-001;-4.466501995921135E-002;-1.863950747065246E-003;-3.557882737368345E-003;
2.413500000000000E+009;1.712683737277985E-001;-4.617970436811447E-002;-2.025705296546221E-003;-3.369189566001296E-003;
2.413666666666667E+009;1.720889359712601E-001;-4.759284481406212E-002;-2.062098355963826E-003;-3.337441245093942E-003;
2.413833333333334E+009;1.726192086935043E-001;-4.900666326284409E-002;-2.120972611010075E-003;-3.277721814811230E-003;
2.414000000000000E+009;1.731210947036743E-001;-5.050983279943466E-002;-2.316668629646301E-003;-3.185591893270612E-003;
2.414166666666667E+009;1.740351915359497E-001;-5.151848495006561E-002;-2.381812548264861E-003;-2.983609680086374E-003;
2.414333333333334E+009;1.745172590017319E-001;-5.260889604687691E-002;-2.415126655250788E-003;-2.849904121831060E-003;
2.414500000000000E+009;1.752814799547195E-001;-5.372292920947075E-002;-2.544224029406905E-003;-2.724844031035900E-003;
2.414666666666667E+009;1.758612394332886E-001;-5.452827364206314E-002;-2.507729222998023E-003;-2.647929126396775E-003;
2.414833333333334E+009;1.762422919273377E-001;-5.532626062631607E-002;-2.658571349456906E-003;-2.588166389614344E-003;
2.415000000000000E+009;1.767825633287430E-001;-5.610892176628113E-002;-2.706072293221951E-003;-2.394751412793994E-003;
2.415166666666667E+009;1.773042529821396E-001;-5.670581012964249E-002;-2.821465488523245E-003;-2.249526092782617E-003;
2.415333333333334E+009;1.778104156255722E-001;-5.738779529929161E-002;-2.785498742014170E-003;-1.985899871215224E-003;
2.415500000000000E+009;1.780023425817490E-001;-5.778381973505020E-002;-2.878810279071331E-003;-1.979922642931342E-003;
2.415666666666667E+009;1.782510578632355E-001;-5.803725495934486E-002;-2.891350071877241E-003;-1.780406921170652E-003;
2.415833333333334E+009;1.785284727811813E-001;-5.853284150362015E-002;-2.968767890706658E-003;-1.651953556574881E-003;
2.416000000000000E+009;1.784769892692566E-001;-5.877907201647759E-002;-2.873963210731745E-003;-1.700145541690290E-003;
2.416166666666667E+009;1.787716150283814E-001;-5.901818722486496E-002;-2.795640379190445E-003;-1.546765211969614E-003;
2.416333333333334E+009;1.784871071577072E-001;-5.918461456894875E-002;-2.862822497263551E-003;-1.314087887294591E-003;
2.416500000000000E+009;1.783906668424606E-001;-5.940321087837219E-002;-2.971953945234418E-003;-1.259149285033345E-003;
2.416666666666667E+009;1.780408322811127E-001;-5.939094722270966E-002;-3.004592610523105E-003;-1.111533609218895E-003;
2.416833333333334E+009;1.778620481491089E-001;-5.955346301198006E-002;-2.854258520528674E-003;-1.103545771911740E-003;
2.417000000000000E+009;1.771011650562286E-001;-5.979109928011894E-002;-3.041172632947564E-003;-1.015706220641732E-003;
2.417166666666667E+009;1.766754686832428E-001;-5.977145209908485E-002;-2.944163512438536E-003;-9.485532063990831E-004;
2.417333333333334E+009;1.759946495294571E-001;-5.993102863430977E-002;-2.773338928818703E-003;-8.901627152226865E-004;
2.417500000000000E+009;1.752493828535080E-001;-6.020523980259895E-002;-2.858853200450540E-003;-6.663980893790722E-004;
2.417666666666667E+009;1.745417714118958E-001;-6.023096293210983E-002;-2.908830763772130E-003;-7.585173589177430E-004;
2.417833333333334E+009;1.735220253467560E-001;-6.049184873700142E-002;-2.750738291069865E-003;-5.960252019576728E-004;
2.418000000000000E+009;1.725220978260040E-001;-6.089744344353676E-002;-2.696192823350430E-003;-2.996073162648827E-004;
2.418166666666667E+009;1.713899672031403E-001;-6.091823428869247E-002;-2.642793813720346E-003;-3.524633066263050E-004;
2.418333333333334E+009;1.704139262437820E-001;-6.149895489215851E-002;-2.636458491906524E-003;-2.523019502405077E-004;
2.418500000000000E+009;1.692637503147125E-001;-6.183833628892899E-002;-2.548936754465103E-003;-2.966754254885018E-004;
2.418666666666667E+009;1.681438684463501E-001;-6.237279251217842E-002;-2.608729759231210E-003;-1.665847958065569E-004;
2.418833333333334E+009;1.667246520519257E-001;-6.303939968347549E-002;-2.457231050357223E-003;-1.920696086017415E-004;
2.419000000000000E+009;1.653796136379242E-001;-6.353611499071121E-002;-2.572154160588980E-003;1.673377264523879E-004;
2.419166666666667E+009;1.641168743371964E-001;-6.457278877496719E-002;-2.278350293636322E-003;-1.347304350929335E-005;
2.419333333333334E+009;1.627298742532730E-001;-6.497243791818619E-002;-2.250573597848415E-003;-6.496923015220091E-005;
2.419500000000000E+009;1.615091413259506E-001;-6.604525446891785E-002;-2.291677054017782E-003;1.311747619183734E-004;
2.419666666666667E+009;1.603304147720337E-001;-6.706722825765610E-002;-2.241744892671704E-003;1.366042997688055E-004;
2.419833333333334E+009;1.589320302009583E-001;-6.814159452915192E-002;-2.335107419639826E-003;9.134829451795667E-005;
2.420000000000000E+009;1.578897982835770E-001;-6.934122741222382E-002;-2.188539132475853E-003;1.084079849533737E-005;
2.420166666666667E+009;1.567171812057495E-001;-7.053466141223908E-002;-2.248775912448764E-003;6.560888141393662E-005;
2.420333333333334E+009;1.555581837892532E-001;-7.177544385194778E-002;-2.069249516353011E-003;2.516719396226108E-004;
2.420500000000000E+009;1.544781625270844E-001;-7.314611226320267E-002;-2.181251998990774E-003;2.773448941297829E-004;
2.420666666666667E+009;1.534689962863922E-001;-7.458090037107468E-002;-2.180914860218763E-003;1.524272374808788E-004;
2.420833333333334E+009;1.525682210922241E-001;-7.611925154924393E-002;-1.988928299397230E-003;3.564431099221110E-004;
2.421000000000000E+009;1.518651098012924E-001;-7.769421488046646E-002;-2.070839283987880E-003;2.450761676300317E-004;
2.421166666666667E+009;1.513142734766007E-001;-7.934487611055374E-002;-2.108672866597772E-003;2.633078547660261E-004;
2.421333333333334E+009;1.506934463977814E-001;-8.099474012851715E-002;-2.163029508665204E-003;3.138914180453867E-004;
2.421500000000000E+009;1.499116569757462E-001;-8.270034939050674E-002;-2.134526381269097E-003;2.666796499397606E-004;
2.421666666666667E+009;1.494956016540527E-001;-8.450973033905029E-002;-2.206508768722415E-003;4.440319899003953E-004;
2.421833333333334E+009;1.491992175579071E-001;-8.623289316892624E-002;-2.076613018289208E-003;4.750916268676519E-004;
2.422000000000000E+009;1.489568501710892E-001;-8.817638456821442E-002;-2.023036126047373E-003;4.191928601358086E-004;
2.422166666666667E+009;1.487717181444168E-001;-9.008210152387619E-002;-2.094491152092814E-003;5.115047679282725E-004;
2.422333333333334E+009;1.486136019229889E-001;-9.164705872535706E-002;-2.002680441364646E-003;6.538888555951417E-004;
2.422500000000000E+009;1.485527306795120E-001;-9.328080713748932E-002;-2.116459654644132E-003;6.231652805581689E-004;
2.422666666666667E+009;1.487091034650803E-001;-9.510280936956406E-002;-2.136334544047713E-003;7.030709530226886E-004;
2.422833333333334E+009;1.490094810724258E-001;-9.695582836866379E-002;-2.027150010690093E-003;7.783756009303033E-004;
2.423000000000000E+009;1.492038965225220E-001;-9.853722155094147E-002;-2.150142099708319E-003;6.535646389238536E-004;
2.423166666666667E+009;1.495219320058823E-001;-1.002699956297875E-001;-2.205654280260205E-003;8.696235599927604E-004;
2.423333333333334E+009;1.499973386526108E-001;-1.017386317253113E-001;-2.089176792651415E-003;9.984980570152402E-004;
2.423500000000000E+009;1.502666920423508E-001;-1.032415926456451E-001;-2.044236520305276E-003;9.946543723344803E-004;
2.423666666666667E+009;1.507803052663803E-001;-1.048866882920265E-001;-2.121233148500323E-003;1.190427341498435E-003;
2.423833333333334E+009;1.513931304216385E-001;-1.062303930521011E-001;-1.879564253613353E-003;1.235361327417195E-003;
2.424000000000000E+009;1.518395692110062E-001;-1.074633300304413E-001;-1.925849821418524E-003;1.269501866772771E-003;
2.424166666666667E+009;1.523461639881134E-001;-1.089865863323212E-001;-1.907594036310911E-003;1.334919244982302E-003;
2.424333333333334E+009;1.529720723628998E-001;-1.099939346313477E-001;-1.863904763013125E-003;1.419842243194580E-003;
2.424500000000000E+009;1.535264849662781E-001;-1.111449897289276E-001;-1.690434757620096E-003;1.556259463541210E-003;
2.424666666666667E+009;1.542923450469971E-001;-1.119218021631241E-001;-1.617127214558423E-003;1.603511744178832E-003;
2.424833333333334E+009;1.545314192771912E-001;-1.130067035555840E-001;-1.619367511011660E-003;1.573157147504389E-003;
2.425000000000000E+009;1.552633047103882E-001;-1.138836592435837E-001;-1.467036199755967E-003;1.644609263166785E-003;
2.425166666666667E+009;1.555503755807877E-001;-1.145254224538803E-001;-1.412512618117034E-003;1.734935794956982E-003;
2.425333333333334E+009;1.560126096010208E-001;-1.152868494391441E-001;-1.376947388052940E-003;1.736899605020881E-003;
2.425500000000000E+009;1.564946770668030E-001;-1.157611906528473E-001;-1.370820216834545E-003;1.833567745052278E-003;
2.425666666666667E+009;1.565802544355393E-001;-1.164066717028618E-001;-1.196734723635018E-003;1.681975671090186E-003;
2.425833333333334E+009;1.569158732891083E-001;-1.167617812752724E-001;-1.076104468666017E-003;1.738333841785789E-003;
2.426000000000000E+009;1.570095717906952E-001;-1.172253116965294E-001;-1.107708667404950E-003;1.799002056941390E-003;
2.426166666666667E+009;1.575071811676025E-001;-1.174733340740204E-001;-8.101035491563380E-004;1.699967891909182E-003;
2.426333333333334E+009;1.572208553552628E-001;-1.177114248275757E-001;-8.181960438378155E-004;1.653434941545129E-003;
2.426500000000000E+009;1.572262048721314E-001;-1.178163290023804E-001;-6.195764872245491E-004;1.782970968633890E-003;
2.426666666666667E+009;1.572727113962174E-001;-1.178644150495529E-001;-5.993696977384388E-004;1.676777028478682E-003;
2.426833333333334E+009;1.569898128509522E-001;-1.180520877242088E-001;-5.563644226640463E-004;1.711188815534115E-003;
2.427000000000000E+009;1.564585417509079E-001;-1.182215735316277E-001;-5.246415385045111E-004;1.699113170616329E-003;
2.427166666666667E+009;1.560596376657486E-001;-1.180441230535507E-001;-4.342733591329306E-004;1.514810719527304E-003;
2.427333333333334E+009;1.554391384124756E-001;-1.181856021285057E-001;-4.054564633406699E-004;1.445882138796151E-003;
2.427500000000000E+009;1.548222452402115E-001;-1.183043271303177E-001;-3.236053744331002E-004;1.336855231784284E-003;
2.427666666666667E+009;1.538926512002945E-001;-1.182183325290680E-001;-2.458454109728336E-004;1.568524283356965E-003;
