# Version 1.00
#
freq[Hz];re:Trc1_S11;im:Trc1_S11;re:Trc2_S21;im:Trc2_S21;
2.400000000000000E+009;1.560107618570328E-001;6.188278272747994E-002;4.340848419815302E-003;1.555275288410485E-003;
2.400166666666667E+009;1.560306847095490E-001;6.022078543901444E-002;4.429853055626154E-003;1.494857831858099E-003;
2.400333333333334E+009;1.559713333845139E-001;5.806037783622742E-002;4.191522020846605E-003;1.287613762542605E-003;
2.400500000000000E+009;1.559555232524872E-001;5.619747191667557E-002;4.465056117624044E-003;1.217875280417502E-003;
2.400666666666667E+009;1.560103744268417E-001;5.401932820677757E-002;4.460467956960201E-003;9.679099894128740E-004;
2.400833333333334E+009;1.562542617321014E-001;5.189140513539314E-002;4.380756523460150E-003;9.732162579894066E-004;
2.401000000000000E+009;1.564290374517441E-001;4.967484250664711E-002;4.380098078399897E-003;8.220041054300964E-004;
2.401166666666667E+009;1.566520929336548E-001;4.743438959121704E-002;4.321661777794361E-003;5.760538624599576E-004;
2.401333333333334E+009;1.568498015403748E-001;4.532790556550026E-002;4.387322813272476E-003;4.923217347823083E-004;
2.401500000000000E+009;1.576584279537201E-001;4.338425397872925E-002;4.357369616627693E-003;4.246080643497407E-004;
2.401666666666667E+009;1.578901559114456E-001;4.143187403678894E-002;4.296680446714163E-003;1.838719617808238E-004;
2.401833333333334E+009;1.586546301841736E-001;3.920432180166245E-002;4.403582308441401E-003;2.564328897278756E-004;
2.402000000000000E+009;1.591613888740540E-001;3.729388490319252E-002;4.230315331369638E-003;-6.336749152069388E-007;
2.402166666666667E+009;1.598887741565704E-001;3.518600016832352E-002;4.380157217383385E-003;-1.570590393384919E-004;
2.402333333333334E+009;1.605239063501358E-001;3.332271054387093E-002;4.491756670176983E-003;-1.674228260526434E-004;
2.402500000000000E+009;1.617075502872467E-001;3.159647807478905E-002;4.211243242025375E-003;-3.644436073955149E-004;
2.402666666666667E+009;1.623470038175583E-001;2.987378649413586E-002;4.428271204233170E-003;-4.278880951460451E-004;
2.402833333333334E+009;1.631386578083038E-001;2.819886803627014E-002;4.223092924803495E-003;-5.612845416180790E-004;
2.403000000000000E+009;1.641277968883514E-001;2.670740336179733E-002;4.252116661518812E-003;-7.216890226118267E-004;
2.403166666666667E+009;1.652627438306809E-001;2.523657493293285E-002;4.186350852251053E-003;-8.418948273174465E-004;
2.403333333333334E+009;1.661423891782761E-001;2.385493367910385E-002;4.384512081742287E-003;-9.975427528843284E-004;
2.403500000000000E+009;1.672517359256744E-001;2.254193089902401E-002;4.100752528756857E-003;-1.075326697900891E-003;
2.403666666666667E+009;1.682838201522827E-001;2.099041454494000E-002;4.254188854247332E-003;-1.221899176016450E-003;
2.403833333333334E+009;1.695691645145416E-001;2.012402564287186E-002;4.230543039739132E-003;-1.246920903213322E-003;
2.404000000000000E+009;1.705749928951263E-001;1.908313855528832E-002;4.072373267263174E-003;-1.332007348537445E-003;
2.404166666666667E+009;1.715696901082993E-001;1.787797920405865E-002;4.155487287789583E-003;-1.523254672065377E-003;
2.404333333333334E+009;1.726108342409134E-001;1.723227463662624E-002;4.039305262267590E-003;-1.553579466417432E-003;
2.404500000000000E+009;1.734877824783325E-001;1.638581231236458E-002;4.083832260221243E-003;-1.777854049578309E-003;
2.404666666666667E+009;1.746298372745514E-001;1.567004807293415E-002;3.794674528762698E-003;-2.013188088312745E-003;
2.404833333333334E+009;1.755088567733765E-001;1.501240395009518E-002;3.883095690980554E-003;-2.121294382959604E-003;
2.405000000000000E+009;1.764962822198868E-001;1.456852443516254E-002;3.759215585887432E-003;-2.168444218114018E-003;
2.405166666666667E+009;1.772245764732361E-001;1.404927950352430E-002;3.646484576165676E-003;-2.237048931419849E-003;
2.405333333333334E+009;1.780028641223908E-001;1.337676681578159E-002;3.553256858140230E-003;-2.341153100132942E-003;
2.405500000000000E+009;1.786595731973648E-001;1.303583104163408E-002;3.478644648566842E-003;-2.365970052778721E-003;
2.405666666666667E+009;1.793000400066376E-001;1.282579917460680E-002;3.443261841312051E-003;-2.760691102594137E-003;
2.405833333333334E+009;1.796666830778122E-001;1.272563543170691E-002;3.154739504680038E-003;-2.706240862607956E-003;
2.406000000000000E+009;1.801882386207581E-001;1.230493467301130E-002;3.157232189550996E-003;-2.775813452899456E-003;
2.406166666666667E+009;1.804063320159912E-001;1.223893556743860E-002;3.065843367949128E-003;-2.836636034771800E-003;
2.406333333333334E+009;1.808585673570633E-001;1.202327758073807E-002;2.761450828984380E-003;-2.963537583127618E-003;
2.406500000000000E+009;1.810854375362396E-001;1.167791336774826E-002;2.949576126411557E-003;-2.976651536300778E-003;
2.406666666666667E+009;1.808988302946091E-001;1.153438072651625E-002;2.818658482283354E-003;-3.191898576915264E-003;
2.406833333333334E+009;1.811949759721756E-001;1.118016801774502E-002;2.695630537346005E-003;-3.149273572489619E-003;
2.407000000000000E+009;1.810843497514725E-001;1.093384437263012E-002;2.498810645192862E-003;-3.182506421580911E-003;
2.407166666666667E+009;1.810550689697266E-001;1.077531650662422E-002;2.487523714080453E-003;-3.263371065258980E-003;
2.407333333333334E+009;1.807056069374085E-001;1.027353666722775E-002;2.309484407305718E-003;-3.339477349072695E-003;
2.407500000000000E+009;1.804669052362442E-001;9.909288026392460E-003;2.283991780132055E-003;-3.346170764416456E-003;
2.407666666666667E+009;1.800666600465775E-001;9.542897343635559E-003;2.212332328781486E-003;-3.378396388143301E-003;
2.407833333333334E+009;1.794900000095367E-001;8.896674960851669E-003;2.035609679296613E-003;-3.552688285708427E-003;
2.408000000000000E+009;1.790142357349396E-001;8.082823827862740E-003;2.043314278125763E-003;-3.414735663682222E-003;
2.408166666666667E+009;1.783590167760849E-001;7.496939040720463E-003;1.979092136025429E-003;-3.549850545823574E-003;
2.408333333333334E+009;1.779491752386093E-001;6.821261718869209E-003;1.691379235126078E-003;-3.595743328332901E-003;
2.408500000000000E+009;1.772471368312836E-001;5.802769679576159E-003;1.566977007314563E-003;-3.609193721786141E-003;
2.408666666666667E+009;1.763455420732498E-001;4.671046976000071E-003;1.637616427615285E-003;-3.570426255464554E-003;
2.408833333333334E+009;1.755726039409638E-001;3.787149675190449E-003;1.605982892215252E-003;-3.714122809469700E-003;
2.409000000000000E+009;1.749407947063446E-001;2.536216052249074E-003;1.557008596137166E-003;-3.612600266933441E-003;
2.409166666666667E+009;1.740280240774155E-001;1.293223816901445E-003;1.516607124358416E-003;-3.651292063295841E-003;
2.409333333333334E+009;1.734840124845505E-001;-4.394148345454596E-005;1.309192739427090E-003;-3.661575959995389E-003;
2.409500000000000E+009;1.725491285324097E-001;-1.660485519096255E-003;1.213140552863479E-003;-3.830682719126344E-003;
2.409666666666667E+009;1.717861443758011E-001;-3.057793714106083E-003;1.007195212878287E-003;-3.873699577525258E-003;
2.409833333333334E+009;1.710148751735687E-001;-4.528669174760580E-003;1.047836150974035E-003;-3.842611331492662E-003;
2.410000000000000E+009;1.704188734292984E-001;-6.325451657176018E-003;1.080355606973171E-003;-3.946732729673386E-003;
2.410166666666667E+009;1.698221117258072E-001;-8.005294017493725E-003;8.559235720895231E-004;-3.829803084954619E-003;
2.410333333333334E+009;1.692236959934235E-001;-9.913902729749680E-003;7.366061327047646E-004;-3.963606432080269E-003;
2.410500000000000E+009;1.685695797204971E-001;-1.173228956758976E-002;6.668154383078218E-004;-4.002676345407963E-003;
2.410666666666667E+009;1.680519878864288E-001;-1.374170649796724E-002;5.764232482761145E-004;-4.171508364379406E-003;
2.410833333333334E+009;1.678931266069412E-001;-1.563248224556446E-002;4.662777355406433E-004;-4.111043643206358E-003;
2.411000000000000E+009;1.674925237894058E-001;-1.748596318066120E-002;9.195410530082882E-005;-4.000803921371698E-003;
2.411166666666667E+009;1.672165393829346E-001;-1.964843831956387E-002;1.311968080699444E-004;-4.253418650478125E-003;
2.411333333333334E+009;1.669565290212631E-001;-2.152148634195328E-002;-9.098069131141529E-005;-4.205672070384026E-003;
2.411500000000000E+009;1.667158305644989E-001;-2.383447624742985E-002;-1.452955475542694E-004;-4.143384285271168E-003;
2.411666666666667E+009;1.668355017900467E-001;-2.576724253594875E-002;-2.065114531433210E-004;-4.172984044998884E-003;
2.411833333333334E+009;1.669680178165436E-001;-2.767452038824558E-002;-5.439075757749379E-004;-4.202623851597309E-003;
2.412000000000000E+009;1.671156734228134E-001;-2.990330010652542E-002;-5.588694475591183E-004;-4.056781064718962E-003;
2.412166666666667E+009;1.672969162464142E-001;-3.173303976655006E-002;-7.552173919975758E-004;-4.154008813202381E-003;
2.412333333333334E+009;1.676926761865616E-001;-3.374623507261276E-002;-9.267619461752474E-004;-3.975960891693831E-003;
2.412500000000000E+009;1.680631339550018E-001;-3.566318377852440E-002;-1.140631386078894E-003;-4.036797676235437E-003;
2.412666666666667E+009;1.685372442007065E-001;-3.772198408842087E-002;-1.192507683299482E-003;-3.854549257084727E-003;
2.412833333333334E+009;1.690713614225388E-001;-3.949601948261261E-002;-1.492858631536365E-003;-3.944000694900751E-003;
2.413000000000000E+009;1.695055216550827E-001;-4.123169556260109E-002;-1.434765639714897E-003;-3.877660958096385E-003;
2.413166666666667E+009;1.699489355087280E-001;-4.292258992791176E-002;-1.661682152189314E-003;-3.807919332757592E-003;
2.413333333333334E+009;1.705430001020432E-001;-4.462482780218124E-002;-1.831991714425385E-003;-3.587158862501383E-003;
2.413500000000000E+009;1.711690723896027E-001;-4.605114087462425E-002;-1.973319565877318E-003;-3.507577115669847E-003;
2.413666666666667E+009;1.720466911792755E-001;-4.761942848563194E-002;-2.083867089822888E-003;-3.630100749433041E-003;
2.413833333333334E+009;1.725520789623261E-001;-4.902436956763268E-002;-2.091336995363236E-003;-3.272311063483357E-003;
2.414000000000000E+009;1.731756329536438E-001;-5.027280747890472E-002;-2.331597963348031E-003;-3.111704019829631E-003;
2.414166666666667E+009;1.739422082901001E-001;-5.147415027022362E-002;-2.374175237491727E-003;-2.931660274043679E-003;
2.414333333333334E+009;1.745157092809677E-001;-5.245774239301682E-002;-2.478115726262331E-003;-3.029548795893788E-003;
2.414500000000000E+009;1.753422915935516E-001;-5.354630947113037E-002;-2.503071911633015E-003;-2.885204274207354E-003;
2.414666666666667E+009;1.758398264646530E-001;-5.441788583993912E-002;-2.650635084137321E-003;-2.683284925296903E-003;
2.414833333333334E+009;1.764359623193741E-001;-5.531536042690277E-002;-2.646128879860044E-003;-2.690308727324009E-003;
2.415000000000000E+009;1.768345534801483E-001;-5.617006868124008E-002;-2.696543931961060E-003;-2.509556710720062E-003;
2.415166666666667E+009;1.772578060626984E-001;-5.673446506261826E-002;-2.819459652528167E-003;-2.325264038518071E-003;
2.415333333333334E+009;1.777833551168442E-001;-5.738108605146408E-002;-2.883692504838109E-003;-2.212936757132411E-003;
2.415500000000000E+009;1.781111359596252E-001;-5.779968202114105E-002;-2.814860315993428E-003;-2.110005123540759E-003;
2.415666666666667E+009;1.783579736948013E-001;-5.805341526865959E-002;-2.967131324112415E-003;-1.871587592177093E-003;
2.415833333333334E+009;1.785098314285278E-001;-5.850522592663765E-002;-2.998784184455872E-003;-1.914001884870231E-003;
2.416000000000000E+009;1.785824447870255E-001;-5.872365459799767E-002;-2.956594340503216E-003;-1.763516571372747E-003;
2.416166666666667E+009;1.787367463111877E-001;-5.891645699739456E-002;-2.888524904847145E-003;-1.611971994861960E-003;
2.416333333333334E+009;1.785684973001480E-001;-5.899972468614578E-002;-3.089403733611107E-003;-1.438270090147853E-003;
2.416500000000000E+009;1.783937513828278E-001;-5.936928093433380E-002;-3.054905449971557E-003;-1.332516549155116E-003;
2.416666666666667E+009;1.781132519245148E-001;-5.941354110836983E-002;-3.076274413615465E-003;-1.270940061658621E-003;
2.416833333333334E+009;1.778642237186432E-001;-5.956080928444862E-002;-2.990391105413437E-003;-1.108082593418658E-003;
2.417000000000000E+009;1.772404164075851E-001;-5.976670607924461E-002;-3.001474542543292E-003;-9.814780205488205E-004;
2.417166666666667E+009;1.766941547393799E-001;-5.972007289528847E-002;-2.952223876491189E-003;-9.136974695138633E-004;
2.417333333333334E+009;1.760928183794022E-001;-5.979238450527191E-002;-2.958870027214289E-003;-8.985426393337548E-004;
2.417500000000000E+009;1.751735806465149E-001;-6.017129123210907E-002;-3.008417785167694E-003;-6.886189803481102E-004;
2.417666666666667E+009;1.746219247579575E-001;-6.007780134677887E-002;-2.868005773052573E-003;-6.362335989251733E-004;
2.417833333333334E+009;1.735424697399139E-001;-6.041502207517624E-002;-2.637350233271718E-003;-4.244929295964539E-004;
2.418000000000000E+009;1.724290549755096E-001;-6.080190464854240E-002;-2.746485406532884E-003;-4.094386531505734E-004;
2.418166666666667E+009;1.714908629655838E-001;-6.108522787690163E-002;-2.745549427345395E-003;-4.149614542257041E-004;
2.418333333333334E+009;1.705245673656464E-001;-6.146466359496117E-002;-2.710044384002686E-003;-2.004987472901121E-004;
2.418500000000000E+009;1.693516075611115E-001;-6.188368052244186E-002;-2.692183945327997E-003;-2.891391341108829E-004;
2.418666666666667E+009;1.682423651218414E-001;-6.236162036657333E-002;-2.614083234220743E-003;-5.882564073544927E-005;
2.418833333333334E+009;1.667335778474808E-001;-6.308749318122864E-002;-2.549189841374755E-003;-1.189306058222428E-004;
2.419000000000000E+009;1.654166877269745E-001;-6.373234838247299E-002;-2.568996977061033E-003;-1.115813502110541E-004;
2.419166666666667E+009;1.641446501016617E-001;-6.438928842544556E-002;-2.454068511724472E-003;1.445372618036345E-005;
2.419333333333334E+009;1.628009080886841E-001;-6.506482511758804E-002;-2.391906222328544E-003;-9.440704161534086E-005;
2.419500000000000E+009;1.616860479116440E-001;-6.610532850027084E-002;-2.352627692744136E-003;-2.501075505279005E-005;
2.419666666666667E+009;1.603652238845825E-001;-6.715005636215210E-002;-2.463266719132662E-003;4.497712143347599E-005;
2.419833333333334E+009;1.590266227722168E-001;-6.797882169485092E-002;-2.220252528786659E-003;2.535877865739167E-004;
2.420000000000000E+009;1.579567492008209E-001;-6.919215619564056E-002;-2.204046817496419E-003;2.308729308424518E-004;
2.420166666666667E+009;1.565938144922257E-001;-7.048732042312622E-002;-2.233256353065372E-003;1.512687158538029E-004;
2.420333333333334E+009;1.558377444744110E-001;-7.195912301540375E-002;-2.173891756683588E-003;1.068944402504712E-004;
2.420500000000000E+009;1.546623855829239E-001;-7.317887991666794E-002;-2.274712547659874E-003;1.784235355444253E-004;
2.420666666666667E+009;1.535855829715729E-001;-7.455560564994812E-002;-2.237185835838318E-003;1.687283074716106E-004;
2.420833333333334E+009;1.527553498744965E-001;-7.614869624376297E-002;-2.162414137274027E-003;3.263901162426919E-004;
2.421000000000000E+009;1.519792973995209E-001;-7.780486345291138E-002;-2.317860256880522E-003;1.805867505026981E-004;
2.421166666666667E+009;1.513100117444992E-001;-7.933942228555679E-002;-2.152670174837112E-003;3.751524491235614E-004;
2.421333333333334E+009;1.506410241127014E-001;-8.112778514623642E-002;-2.070729620754719E-003;2.203937765443698E-004;
2.421500000000000E+009;1.499180495738983E-001;-8.278436213731766E-002;-2.137531060725451E-003;3.413723607081920E-004;
2.421666666666667E+009;1.495571434497833E-001;-8.450265228748322E-002;-2.148121828213334E-003;3.006338665727526E-004;
2.421833333333334E+009;1.492861360311508E-001;-8.622216433286667E-002;-2.228471916168928E-003;5.054177599959076E-004;
2.422000000000000E+009;1.489087045192719E-001;-8.808480203151703E-002;-2.160374308004975E-003;5.008726730011404E-004;
2.422166666666667E+009;1.488326340913773E-001;-8.993619680404663E-002;-2.247474621981382E-003;4.081928054802120E-004;
2.422333333333334E+009;1.486756652593613E-001;-9.169153124094009E-002;-2.188481623306871E-003;5.653219996020198E-004;
2.422500000000000E+009;1.486682742834091E-001;-9.330921620130539E-002;-2.268792595714331E-003;5.458958912640810E-004;
2.422666666666667E+009;1.485295742750168E-001;-9.520950913429260E-002;-2.270220313221216E-003;6.111363181844354E-004;
2.422833333333334E+009;1.488927006721497E-001;-9.695947170257568E-002;-2.237270586192608E-003;5.249839159660041E-004;
2.423000000000000E+009;1.491822451353073E-001;-9.862808883190155E-002;-2.242409624159336E-003;6.976982112973929E-004;
2.423166666666667E+009;1.496241986751556E-001;-1.001852527260780E-001;-2.186251571401954E-003;8.204007172025740E-004;
2.423333333333334E+009;1.499803960323334E-001;-1.017822846770287E-001;-2.122540725395083E-003;9.095015702769160E-004;
2.423500000000000E+009;1.503724455833435E-001;-1.033566445112228E-001;-2.020929940044880E-003;9.245426044799388E-004;
2.423666666666667E+009;1.506785750389099E-001;-1.050180792808533E-001;-2.108051674440503E-003;1.121215871535242E-003;
2.423833333333334E+009;1.514207869768143E-001;-1.063574552536011E-001;-2.114107366651297E-003;1.249827095307410E-003;
2.424000000000000E+009;1.517764329910278E-001;-1.075536236166954E-001;-2.018607687205076E-003;1.223559258505702E-003;
2.424166666666667E+009;1.522380411624908E-001;-1.088017001748085E-001;-1.988676842302084E-003;1.450506155379117E-003;
2.424333333333334E+009;1.529223322868347E-001;-1.099625006318092E-001;-1.835126429796219E-003;1.526217092759907E-003;
2.424500000000000E+009;1.535604596138001E-001;-1.111736372113228E-001;-1.691156649030745E-003;1.437872066162527E-003;
2.424666666666667E+009;1.542209684848785E-001;-1.119920909404755E-001;-1.801015925593674E-003;1.481788116507232E-003;
2.424833333333334E+009;1.546314209699631E-001;-1.130577474832535E-001;-1.690363511443138E-003;1.550814835354686E-003;
2.425000000000000E+009;1.551752090454102E-001;-1.138721853494644E-001;-1.584537210874260E-003;1.711015705950558E-003;
2.425166666666667E+009;1.555707007646561E-001;-1.146461963653565E-001;-1.613456523045898E-003;1.726257847622037E-003;
2.425333333333334E+009;1.561099886894226E-001;-1.151370182633400E-001;-1.423522597178817E-003;1.737923244945705E-003;
2.425500000000000E+009;1.564694792032242E-001;-1.159185171127319E-001;-1.278179581277072E-003;1.753947464749217E-003;
2.425666666666667E+009;1.566947847604752E-001;-1.163498237729073E-001;-1.130128512158990E-003;1.605446566827595E-003;
2.425833333333334E+009;1.569193452596664E-001;-1.166373193264008E-001;-1.176374731585383E-003;1.810805755667388E-003;
2.426000000000000E+009;1.571013331413269E-001;-1.171394586563110E-001;-1.004697987809777E-003;1.748709357343614E-003;
2.426166666666667E+009;1.573509722948074E-001;-1.174902021884918E-001;-9.524116176180542E-004;1.765359309501946E-003;
2.426333333333334E+009;1.572365015745163E-001;-1.176924780011177E-001;-7.255957461893559E-004;1.650505117140710E-003;
2.426500000000000E+009;1.572898924350739E-001;-1.178352609276772E-001;-7.256043609231710E-004;1.679858076386154E-003;
2.426666666666667E+009;1.571854054927826E-001;-1.179042682051659E-001;-7.691036444157362E-004;1.809232751838863E-003;
2.426833333333334E+009;1.569278687238693E-001;-1.180109679698944E-001;-6.173395086079836E-004;1.562673947773874E-003;
2.427000000000000E+009;1.564330756664276E-001;-1.181318312883377E-001;-6.010940414853394E-004;1.517220400273800E-003;
2.427166666666667E+009;1.560131460428238E-001;-1.180908158421516E-001;-5.352032021619380E-004;1.556772156618536E-003;
2.427333333333334E+009;1.553899794816971E-001;-1.182278096675873E-001;-5.350736901164055E-004;1.403676462359726E-003;
2.427500000000000E+009;1.548731178045273E-001;-1.181955933570862E-001;-3.149575204588473E-004;1.398651744239032E-003;
2.427666666666667E+009;1.540176123380661E-001;-1.182630285620689E-001;-2.731286804191768E-004;1.499529578723013E-003;
