# Version 1.00
#
freq[Hz];re:Trc1_S11;im:Trc1_S11;re:Trc2_S21;im:Trc2_S21;
2.400000000000000E+009;1.561383903026581E-001;6.189593300223351E-002;4.355429671704769E-003;1.640002592466772E-003;
2.400166666666667E+009;1.560121178627014E-001;6.030978262424469E-002;4.458022303879261E-003;1.323436154052615E-003;
2.400333333333334E+009;1.558241546154022E-001;5.815881118178368E-002;4.308335948735476E-003;1.276785391382873E-003;
2.400500000000000E+009;1.559750735759735E-001;5.613166093826294E-002;4.484966397285461E-003;1.130711752921343E-003;
2.400666666666667E+009;1.560011655092239E-001;5.395393818616867E-002;4.583558067679405E-003;1.055185100995004E-003;
2.400833333333334E+009;1.563528478145599E-001;5.189773812890053E-002;4.518621601164341E-003;1.013079308904707E-003;
2.401000000000000E+009;1.564283519983292E-001;4.989618435502052E-002;4.693264141678810E-003;7.119104848243296E-004;
2.401166666666667E+009;1.568646430969238E-001;4.767460376024246E-002;4.623285960406065E-003;6.202934891916812E-004;
2.401333333333334E+009;1.569540351629257E-001;4.531450569629669E-002;4.597368650138378E-003;4.087749402970076E-004;
2.401500000000000E+009;1.576906442642212E-001;4.357604309916496E-002;4.697069060057402E-003;4.230400954838842E-004;
2.401666666666667E+009;1.580921858549118E-001;4.147600010037422E-002;4.548638593405485E-003;1.500309444963932E-004;
2.401833333333334E+009;1.584721505641937E-001;3.944104909896851E-002;4.352159332484007E-003;3.106081067016930E-006;
2.402000000000000E+009;1.591877937316895E-001;3.737108409404755E-002;4.632544238120318E-003;-6.159563781693578E-005;
2.402166666666667E+009;1.598529517650604E-001;3.511089831590653E-002;4.525751806795597E-003;-2.352057199459523E-004;
2.402333333333334E+009;1.604726165533066E-001;3.355299308896065E-002;4.393507726490498E-003;-2.467795857228339E-004;
2.402500000000000E+009;1.615748852491379E-001;3.162971511483192E-002;4.480591975152493E-003;-2.909596660174429E-004;
2.402666666666667E+009;1.623475551605225E-001;2.997021563351154E-002;4.431489389389753E-003;-5.207047797739506E-004;
2.402833333333334E+009;1.631808876991272E-001;2.831828035414219E-002;4.399870522320271E-003;-5.544043960981071E-004;
2.403000000000000E+009;1.643162071704865E-001;2.668092586100102E-002;4.336657933890820E-003;-8.208450162783265E-004;
2.403166666666667E+009;1.651655584573746E-001;2.518159151077271E-002;4.350529052317143E-003;-8.519546827301383E-004;
2.403333333333334E+009;1.661972105503082E-001;2.383004687726498E-002;4.475158639252186E-003;-9.194801677949727E-004;
2.403500000000000E+009;1.673184633255005E-001;2.255742624402046E-002;4.345048218965530E-003;-1.165034016594291E-003;
2.403666666666667E+009;1.682292222976685E-001;2.104514092206955E-002;4.211174324154854E-003;-1.322164433076978E-003;
2.403833333333334E+009;1.695362031459808E-001;2.008563652634621E-002;4.291704855859280E-003;-1.296927570365369E-003;
2.404000000000000E+009;1.706078052520752E-001;1.903570443391800E-002;4.258397500962019E-003;-1.467288588173688E-003;
2.404166666666667E+009;1.714453101158142E-001;1.785811781883240E-002;3.964986652135849E-003;-1.543809310533106E-003;
2.404333333333334E+009;1.726040989160538E-001;1.722260192036629E-002;4.183865152299404E-003;-1.831605331972241E-003;
2.404500000000000E+009;1.735298335552216E-001;1.617631316184998E-002;3.949967678636313E-003;-1.884982106275857E-003;
2.404666666666667E+009;1.745587438344955E-001;1.559189520776272E-002;4.075116477906704E-003;-1.994897611439228E-003;
2.404833333333334E+009;1.754294782876968E-001;1.501955091953278E-002;3.895467147231102E-003;-2.007600385695696E-003;
2.405000000000000E+009;1.762737631797791E-001;1.449059508740902E-002;3.985353745520115E-003;-2.199572976678610E-003;
2.405166666666667E+009;1.771619170904160E-001;1.389693468809128E-002;3.779844846576452E-003;-2.428587060421705E-003;
2.405333333333334E+009;1.779097616672516E-001;1.347765140235424E-002;3.770382609218359E-003;-2.551808720454574E-003;
2.405500000000000E+009;1.786696612834930E-001;1.322858035564423E-002;3.481591120362282E-003;-2.520381705835462E-003;
2.405666666666667E+009;1.792692542076111E-001;1.283773221075535E-002;3.471154486760497E-003;-2.697234973311424E-003;
2.405833333333334E+009;1.796337217092514E-001;1.257382705807686E-002;3.504440188407898E-003;-2.787365810945630E-003;
2.406000000000000E+009;1.802089363336563E-001;1.222084276378155E-002;3.339133691042662E-003;-2.905212109908462E-003;
2.406166666666667E+009;1.803915053606033E-001;1.218912377953529E-002;3.161813365295529E-003;-2.948394976556301E-003;
2.406333333333334E+009;1.808475106954575E-001;1.190705411136150E-002;3.102613613009453E-003;-3.178394632413983E-003;
2.406500000000000E+009;1.810626238584518E-001;1.171671040356159E-002;2.860927721485496E-003;-3.120037494227290E-003;
2.406666666666667E+009;1.809698045253754E-001;1.158599648624659E-002;2.889670431613922E-003;-3.092239378020167E-003;
2.406833333333334E+009;1.811108291149139E-001;1.125089451670647E-002;2.683869330212474E-003;-3.202415769919753E-003;
2.407000000000000E+009;1.810250282287598E-001;1.093469467014074E-002;2.474019071087241E-003;-3.209311747923493E-003;
2.407166666666667E+009;1.809788495302200E-001;1.077541522681713E-002;2.623822540044785E-003;-3.356597153469920E-003;
2.407333333333334E+009;1.806627213954926E-001;1.025542989373207E-002;2.333611948415637E-003;-3.352966392412782E-003;
2.407500000000000E+009;1.803128719329834E-001;9.905599057674408E-003;2.462908392772079E-003;-3.505164990201592E-003;
2.407666666666667E+009;1.800964325666428E-001;9.489034302532673E-003;2.222968032583594E-003;-3.554343245923519E-003;
2.407833333333334E+009;1.794525682926178E-001;8.881118148565292E-003;2.227349672466517E-003;-3.553296439349651E-003;
2.408000000000000E+009;1.789076030254364E-001;8.254698477685452E-003;1.994425663724542E-003;-3.614747663959861E-003;
2.408166666666667E+009;1.783086508512497E-001;7.604651153087616E-003;2.051169751212001E-003;-3.622557967901230E-003;
2.408333333333334E+009;1.779347211122513E-001;6.832020822912455E-003;1.841734745539725E-003;-3.704224480316043E-003;
2.408500000000000E+009;1.770781129598618E-001;5.829927511513233E-003;1.618748879991472E-003;-3.599123330786824E-003;
2.408666666666667E+009;1.764931678771973E-001;4.756803158670664E-003;1.768762012943626E-003;-3.721573855727911E-003;
2.408833333333334E+009;1.755903959274292E-001;3.802038030698896E-003;1.510104164481163E-003;-3.782980144023895E-003;
2.409000000000000E+009;1.747404336929321E-001;2.667516702786088E-003;1.588810468092561E-003;-3.751862794160843E-003;
2.409166666666667E+009;1.740869283676148E-001;1.460254658013582E-003;1.497549354098737E-003;-3.772417781874538E-003;
2.409333333333334E+009;1.734517812728882E-001;-6.250916339922696E-005;1.423482550308108E-003;-3.818985540419817E-003;
2.409500000000000E+009;1.725008785724640E-001;-1.555265742354095E-003;1.207143999636173E-003;-3.822479164227843E-003;
2.409666666666667E+009;1.717511415481567E-001;-2.957717981189489E-003;1.064599025994539E-003;-3.915269859135151E-003;
2.409833333333334E+009;1.709650903940201E-001;-4.517080727964640E-003;1.078410889022052E-003;-4.074856638908386E-003;
2.410000000000000E+009;1.703868657350540E-001;-6.207756232470274E-003;9.501003078185022E-004;-4.109708126634359E-003;
2.410166666666667E+009;1.697994768619537E-001;-7.968462072312832E-003;9.737345972098410E-004;-4.123065620660782E-003;
2.410333333333334E+009;1.690394133329392E-001;-9.777855128049851E-003;7.653200300410390E-004;-4.213583189994097E-003;
2.410500000000000E+009;1.687685251235962E-001;-1.151339896023274E-002;7.222712156362832E-004;-4.096226766705513E-003;
2.410666666666667E+009;1.682152897119522E-001;-1.384466793388128E-002;4.463818331714720E-004;-4.302650690078735E-003;
2.410833333333334E+009;1.677679568529129E-001;-1.553230546414852E-002;3.506650391500443E-004;-4.233666229993105E-003;
2.411000000000000E+009;1.673548817634583E-001;-1.751547493040562E-002;1.514773903181776E-004;-4.322401713579893E-003;
2.411166666666667E+009;1.671102195978165E-001;-1.950377039611340E-002;8.656098361825571E-005;-4.304199013859034E-003;
2.411333333333334E+009;1.671089082956314E-001;-2.158521860837936E-002;-1.854135189205408E-005;-4.313511308282614E-003;
2.411500000000000E+009;1.669260561466217E-001;-2.378264255821705E-002;-3.185529494658113E-004;-4.371889401227236E-003;
2.411666666666667E+009;1.668472439050674E-001;-2.566688135266304E-002;-2.676098083611578E-004;-4.219520371407270E-003;
2.411833333333334E+009;1.670005619525909E-001;-2.760768122971058E-002;-6.004542810842395E-004;-4.295126069337130E-003;
2.412000000000000E+009;1.673048287630081E-001;-2.983015216886997E-002;-7.638595998287201E-004;-4.324016626924276E-003;
2.412166666666667E+009;1.672873049974442E-001;-3.186773508787155E-002;-9.259057114832103E-004;-4.184460733085871E-003;
2.412333333333334E+009;1.679140329360962E-001;-3.378674015402794E-002;-1.099539338611066E-003;-4.287771414965391E-003;
2.412500000000000E+009;1.678806394338608E-001;-3.566487133502960E-002;-1.201008446514607E-003;-4.220403730869293E-003;
2.412666666666667E+009;1.684649884700775E-001;-3.775370866060257E-002;-1.390001852996647E-003;-3.997195046395063E-003;
2.412833333333334E+009;1.691886037588120E-001;-3.939196094870567E-002;-1.489255810156465E-003;-3.930135630071163E-003;
2.413000000000000E+009;1.696467250585556E-001;-4.127324000000954E-002;-1.726305577903986E-003;-3.887932747602463E-003;
2.413166666666667E+009;1.700572967529297E-001;-4.283202812075615E-002;-1.814683782868087E-003;-3.900965210050345E-003;
2.413333333333334E+009;1.707770675420761E-001;-4.476135596632958E-002;-2.016244921833277E-003;-3.667772747576237E-003;
2.413500000000000E+009;1.713079214096069E-001;-4.625771194696426E-002;-2.170738996937871E-003;-3.741420805454254E-003;
2.413666666666667E+009;1.720963120460510E-001;-4.771957919001579E-002;-2.177065005525947E-003;-3.509114030748606E-003;
2.413833333333334E+009;1.726422458887100E-001;-4.904071241617203E-002;-2.383151091635227E-003;-3.384647425264120E-003;
2.414000000000000E+009;1.731958836317062E-001;-5.036376789212227E-002;-2.525847405195236E-003;-3.256359137594700E-003;
2.414166666666667E+009;1.739982664585114E-001;-5.153603479266167E-002;-2.428780542686582E-003;-3.263562917709351E-003;
2.414333333333334E+009;1.746291369199753E-001;-5.273295566439629E-002;-2.647622488439083E-003;-3.231179667636752E-003;
2.414500000000000E+009;1.754040271043778E-001;-5.355452001094818E-002;-2.667988650500774E-003;-3.015089780092239E-003;
2.414666666666667E+009;1.758652776479721E-001;-5.454912036657333E-002;-2.843891736119986E-003;-2.830949611961842E-003;
2.414833333333334E+009;1.763583123683929E-001;-5.551123991608620E-002;-2.819156507030129E-003;-2.711718436330557E-003;
2.415000000000000E+009;1.769594550132752E-001;-5.619584769010544E-002;-2.969862660393119E-003;-2.602042630314827E-003;
2.415166666666667E+009;1.773411631584168E-001;-5.674336850643158E-002;-3.039587521925569E-003;-2.450418658554554E-003;
2.415333333333334E+009;1.778505295515060E-001;-5.742262303829193E-002;-2.957863966003060E-003;-2.221483737230301E-003;
2.415500000000000E+009;1.781555861234665E-001;-5.765362083911896E-002;-3.110581310465932E-003;-2.220521448180080E-003;
2.415666666666667E+009;1.782294511795044E-001;-5.812227353453636E-002;-3.049747319892049E-003;-1.911305589601398E-003;
2.415833333333334E+009;1.785737127065659E-001;-5.853977426886559E-002;-3.223489038646221E-003;-1.752615789882839E-003;
2.416000000000000E+009;1.785403043031693E-001;-5.876271054148674E-002;-3.291842062026262E-003;-1.889557461254299E-003;
2.416166666666667E+009;1.786585450172424E-001;-5.902311950922012E-002;-3.162369597703219E-003;-1.564887585118413E-003;
2.416333333333334E+009;1.785697191953659E-001;-5.912574753165245E-002;-3.248946042731404E-003;-1.541872974485159E-003;
2.416500000000000E+009;1.784701794385910E-001;-5.932812392711639E-002;-3.265629056841135E-003;-1.489806687459350E-003;
2.416666666666667E+009;1.781130284070969E-001;-5.943051725625992E-002;-3.157213795930147E-003;-1.335923676379025E-003;
2.416833333333334E+009;1.777506023645401E-001;-5.958440527319908E-002;-3.178592538461089E-003;-1.174026285298169E-003;
2.417000000000000E+009;1.772567629814148E-001;-5.976451188325882E-002;-2.911302261054516E-003;-1.062771771103144E-003;
2.417166666666667E+009;1.767078042030335E-001;-5.979622527956963E-002;-3.341817995533347E-003;-8.232088875956833E-004;
2.417333333333334E+009;1.760616302490234E-001;-5.988747254014015E-002;-3.206092631444335E-003;-9.921665769070387E-004;
2.417500000000000E+009;1.753253340721130E-001;-6.020425632596016E-002;-3.087754594162107E-003;-8.418076904490590E-004;
2.417666666666667E+009;1.745771169662476E-001;-6.019262596964836E-002;-3.195655532181263E-003;-6.919431034475565E-004;
2.417833333333334E+009;1.736365705728531E-001;-6.033528223633766E-002;-2.968059154227376E-003;-3.987515228800476E-004;
2.418000000000000E+009;1.726369857788086E-001;-6.084186956286430E-002;-3.028727602213621E-003;-4.358416190370917E-004;
2.418166666666667E+009;1.714296787977219E-001;-6.096371263265610E-002;-2.945072017610073E-003;-4.033999575767666E-004;
2.418333333333334E+009;1.706075370311737E-001;-6.150051951408386E-002;-2.952308161184192E-003;-1.783320913091302E-004;
2.418500000000000E+009;1.692461669445038E-001;-6.178629398345947E-002;-2.948262495920062E-003;-2.080475533148274E-004;
2.418666666666667E+009;1.681118309497833E-001;-6.243257969617844E-002;-2.916942816227675E-003;-2.044641878455877E-004;
2.418833333333334E+009;1.667297184467316E-001;-6.295025348663330E-002;-2.699920907616615E-003;-1.131424214690924E-004;
2.419000000000000E+009;1.654518544673920E-001;-6.358243525028229E-002;-2.833893988281488E-003;-1.370455865981057E-004;
2.419166666666667E+009;1.642101556062698E-001;-6.435929238796234E-002;-2.728307386860251E-003;-4.606569200404920E-005;
2.419333333333334E+009;1.627636551856995E-001;-6.489549577236176E-002;-2.598247257992625E-003;9.726441930979490E-006;
2.419500000000000E+009;1.614751517772675E-001;-6.605362892150879E-002;-2.480851486325264E-003;1.771962997736409E-004;
2.419666666666667E+009;1.603911072015762E-001;-6.711004674434662E-002;-2.547092037275434E-003;9.253741882275790E-005;
2.419833333333334E+009;1.589785963296890E-001;-6.797507405281067E-002;-2.475681714713574E-003;1.136740975198336E-004;
2.420000000000000E+009;1.579596400260925E-001;-6.913983076810837E-002;-2.354654949158430E-003;1.343620533589274E-004;
2.420166666666667E+009;1.567095071077347E-001;-7.053024321794510E-002;-2.333387266844511E-003;2.019992971327156E-004;
2.420333333333334E+009;1.555038541555405E-001;-7.185105979442596E-002;-2.250236691907048E-003;3.179718041792512E-004;
2.420500000000000E+009;1.547718197107315E-001;-7.313453406095505E-002;-2.330725779756904E-003;3.422937297727913E-004;
2.420666666666667E+009;1.537039577960968E-001;-7.450167834758759E-002;-2.282410860061646E-003;9.813468932406977E-005;
2.420833333333334E+009;1.527549624443054E-001;-7.612055540084839E-002;-2.373410388827324E-003;3.121133486274630E-004;
2.421000000000000E+009;1.518212109804153E-001;-7.771304994821549E-002;-2.301035914570093E-003;3.768383758142591E-004;
2.421166666666667E+009;1.511056125164032E-001;-7.921760529279709E-002;-2.384810242801905E-003;4.182891862001270E-004;
2.421333333333334E+009;1.506766527891159E-001;-8.110186457633972E-002;-2.224465366452932E-003;3.701992973219603E-004;
2.421500000000000E+009;1.500922292470932E-001;-8.268947899341583E-002;-2.247159602120519E-003;3.055697306990624E-004;
2.421666666666667E+009;1.494751125574112E-001;-8.448322117328644E-002;-2.356224460527301E-003;5.291601992212236E-004;
2.421833333333334E+009;1.492158919572830E-001;-8.620100468397141E-002;-2.368516987189651E-003;4.583452828228474E-004;
2.422000000000000E+009;1.490584909915924E-001;-8.799169212579727E-002;-2.285227179527283E-003;4.350887902546674E-004;
2.422166666666667E+009;1.486943662166596E-001;-8.985818177461624E-002;-2.120408229529858E-003;5.920346593484283E-004;
2.422333333333334E+009;1.487138420343399E-001;-9.148912131786346E-002;-2.329857787117362E-003;7.582522812299430E-004;
2.422500000000000E+009;1.487758159637451E-001;-9.326875209808350E-002;-2.274956554174423E-003;7.771129603497684E-004;
2.422666666666667E+009;1.486160904169083E-001;-9.513851255178452E-002;-2.301328349858522E-003;7.689859485253692E-004;
2.422833333333334E+009;1.489522904157639E-001;-9.714090079069138E-002;-2.175127621740103E-003;8.836134220473468E-004;
2.423000000000000E+009;1.490723639726639E-001;-9.857732057571411E-002;-2.276476938277483E-003;1.078969449736178E-003;
2.423166666666667E+009;1.495001316070557E-001;-1.002916321158409E-001;-2.173792570829392E-003;1.085124094970524E-003;
2.423333333333334E+009;1.500165015459061E-001;-1.016401872038841E-001;-2.268834039568901E-003;1.085879397578538E-003;
2.423500000000000E+009;1.503075063228607E-001;-1.033123284578323E-001;-2.183186123147607E-003;1.218467601574957E-003;
2.423666666666667E+009;1.505460441112518E-001;-1.049173995852470E-001;-2.094627590849996E-003;1.256060437299311E-003;
2.423833333333334E+009;1.511808484792709E-001;-1.064230725169182E-001;-2.098195021972060E-003;1.333311782218516E-003;
2.424000000000000E+009;1.517487913370132E-001;-1.076124832034111E-001;-2.013724064454436E-003;1.355619868263602E-003;
2.424166666666667E+009;1.523136943578720E-001;-1.088552400469780E-001;-1.933940104208887E-003;1.562294666655362E-003;
2.424333333333334E+009;1.529390215873718E-001;-1.099088639020920E-001;-1.826628111302853E-003;1.603289158083499E-003;
2.424500000000000E+009;1.534077227115631E-001;-1.110973507165909E-001;-1.808190834708512E-003;1.653033774346113E-003;
2.424666666666667E+009;1.541566252708435E-001;-1.119685471057892E-001;-1.722410088405013E-003;1.625209697522223E-003;
2.424833333333334E+009;1.545167714357376E-001;-1.130176410079002E-001;-1.550437766127288E-003;1.787866465747356E-003;
2.425000000000000E+009;1.550341546535492E-001;-1.138387471437454E-001;-1.504193292930722E-003;1.648841775022447E-003;
2.425166666666667E+009;1.553928852081299E-001;-1.145804375410080E-001;-1.475308439694345E-003;1.982276560738683E-003;
2.425333333333334E+009;1.559867709875107E-001;-1.150650084018707E-001;-1.393540180288255E-003;1.843058853410184E-003;
2.425500000000000E+009;1.564313620328903E-001;-1.158712580800057E-001;-1.198833342641592E-003;1.900658244267106E-003;
2.425666666666667E+009;1.566012799739838E-001;-1.163076832890511E-001;-1.168707269243896E-003;1.888872124254704E-003;
2.425833333333334E+009;1.568857431411743E-001;-1.167109310626984E-001;-1.043408992700279E-003;1.809834036976099E-003;
2.426000000000000E+009;1.570115387439728E-001;-1.171862855553627E-001;-9.697075001895428E-004;2.023726236075163E-003;
2.426166666666667E+009;1.574345976114273E-001;-1.174908801913261E-001;-9.051969391293824E-004;1.848526066169143E-003;
2.426333333333334E+009;1.572474539279938E-001;-1.177251487970352E-001;-7.399538299068809E-004;1.723593682982028E-003;
2.426500000000000E+009;1.573052853345871E-001;-1.177860423922539E-001;-7.375643472187221E-004;1.850221189670265E-003;
2.426666666666667E+009;1.571920514106751E-001;-1.178064048290253E-001;-7.154708728194237E-004;1.762075349688530E-003;
2.426833333333334E+009;1.568625271320343E-001;-1.180327311158180E-001;-5.581029690802097E-004;1.782386214472354E-003;
2.427000000000000E+009;1.565839797258377E-001;-1.181052178144455E-001;-5.754595622420311E-004;1.724217319861054E-003;
2.427166666666667E+009;1.560437232255936E-001;-1.180287748575211E-001;-4.547197313513607E-004;1.749017508700490E-003;
2.427333333333334E+009;1.553748399019241E-001;-1.180830970406532E-001;-4.094770702067763E-004;1.544705592095852E-003;
2.427500000000000E+009;1.548693925142288E-001;-1.181600466370583E-001;-3.828534099739045E-004;1.714090001769364E-003;
2.427666666666667E+009;1.540485024452210E-001;-1.182318404316902E-001;-2.868924930226058E-004;1.538080861791968E-003;
