# Version 1.00
#
freq[Hz];re:Trc1_S11;im:Trc1_S11;re:Trc2_S21;im:Trc2_S21;
2.400000000000000E+009;1.621128916740418E-001;5.292193219065666E-002;2.980933641083539E-004;-6.041689310222864E-003;
2.400166666666667E+009;1.618403196334839E-001;5.125257000327110E-002;1.098041175282560E-004;-6.290893536061049E-003;
2.400333333333334E+009;1.616178750991821E-001;4.937470704317093E-002;-6.919572479091585E-005;-6.255594082176685E-003;
2.400500000000000E+009;1.615517735481262E-001;4.742841795086861E-002;-3.095890278927982E-004;-6.403725128620863E-003;
2.400666666666667E+009;1.616753339767456E-001;4.519278556108475E-002;-4.927820991724730E-004;-6.446576677262783E-003;
2.400833333333334E+009;1.615570187568665E-001;4.320882633328438E-002;-6.479182047769427E-004;-6.424683611840010E-003;
2.401000000000000E+009;1.615588068962097E-001;4.110853374004364E-002;-8.900944376364350E-004;-6.555965635925531E-003;
2.401166666666667E+009;1.616764664649963E-001;3.902787715196610E-002;-1.326013938523829E-003;-6.674628704786301E-003;
2.401333333333334E+009;1.617413163185120E-001;3.680215775966644E-002;-1.593952183611691E-003;-6.755852140486240E-003;
2.401500000000000E+009;1.622226834297180E-001;3.471658751368523E-002;-1.749192248098552E-003;-6.793167907744646E-003;
2.401666666666667E+009;1.623917967081070E-001;3.255596011877060E-002;-2.149249194189906E-003;-6.748103071004152E-003;
2.401833333333334E+009;1.626882255077362E-001;3.046091459691525E-002;-2.362423809245229E-003;-6.557462271302939E-003;
2.402000000000000E+009;1.630219072103500E-001;2.846380323171616E-002;-2.727602142840624E-003;-6.636364385485649E-003;
2.402166666666667E+009;1.634318977594376E-001;2.613094821572304E-002;-3.019946394488215E-003;-6.664685904979706E-003;
2.402333333333334E+009;1.639874428510666E-001;2.440855652093887E-002;-3.331193700432777E-003;-6.459870841354132E-003;
2.402500000000000E+009;1.646562367677689E-001;2.242612093687058E-002;-3.596002236008644E-003;-6.340586580336094E-003;
2.402666666666667E+009;1.651294380426407E-001;2.076335437595844E-002;-3.963844850659370E-003;-6.302357651293278E-003;
2.402833333333334E+009;1.657478362321854E-001;1.899316720664501E-002;-4.305182490497828E-003;-6.154221016913652E-003;
2.403000000000000E+009;1.666670590639114E-001;1.714409515261650E-002;-4.535058978945017E-003;-6.167750339955092E-003;
2.403166666666667E+009;1.673467010259628E-001;1.566302590072155E-002;-4.901484120637178E-003;-5.920026451349258E-003;
2.403333333333334E+009;1.682779341936112E-001;1.409320347011089E-002;-5.041431635618210E-003;-5.574811249971390E-003;
2.403500000000000E+009;1.689912378787994E-001;1.252204645425081E-002;-5.437523126602173E-003;-5.481560714542866E-003;
2.403666666666667E+009;1.698826700448990E-001;1.135841850191355E-002;-5.787025205790997E-003;-5.118624772876501E-003;
2.403833333333334E+009;1.708084791898727E-001;9.871657937765122E-003;-6.061810068786144E-003;-4.953151568770409E-003;
2.404000000000000E+009;1.717100590467453E-001;8.745764382183552E-003;-6.387304980307818E-003;-4.808329511433840E-003;
2.404166666666667E+009;1.723898053169251E-001;7.747223135083914E-003;-6.599189247936010E-003;-4.292895086109638E-003;
2.404333333333334E+009;1.733238995075226E-001;6.652894429862499E-003;-6.818756926804781E-003;-4.014909733086824E-003;
2.404500000000000E+009;1.741122901439667E-001;5.645329598337412E-003;-7.106999401003122E-003;-3.732538316398859E-003;
2.404666666666667E+009;1.750942617654800E-001;4.824466072022915E-003;-7.203290238976479E-003;-3.271609311923385E-003;
2.404833333333334E+009;1.756997853517532E-001;4.042235668748617E-003;-7.350370753556490E-003;-3.102793823927641E-003;
2.405000000000000E+009;1.765317022800446E-001;3.464546054601669E-003;-7.455845829099417E-003;-2.654170384630561E-003;
2.405166666666667E+009;1.772052943706513E-001;2.879139501601458E-003;-7.602959405630827E-003;-2.432569861412048E-003;
2.405333333333334E+009;1.779126524925232E-001;2.254140330478549E-003;-7.618235889822245E-003;-1.956268912181258E-003;
2.405500000000000E+009;1.785496473312378E-001;1.855407375842333E-003;-7.859604433178902E-003;-1.693328376859427E-003;
2.405666666666667E+009;1.791926771402359E-001;1.498158904723823E-003;-7.781623397022486E-003;-1.189107890240848E-003;
2.405833333333334E+009;1.794965565204620E-001;1.386426622048020E-003;-7.839205674827099E-003;-7.731966907158494E-004;
2.406000000000000E+009;1.800916194915772E-001;8.334066369570792E-004;-7.761032786220312E-003;-3.834454400930554E-004;
2.406166666666667E+009;1.803827881813049E-001;8.477114606648684E-004;-7.662950549274683E-003;-1.053547530318610E-004;
2.406333333333334E+009;1.807238608598709E-001;6.398975383490324E-004;-7.663163356482983E-003;3.783557040151209E-004;
2.406500000000000E+009;1.808282285928726E-001;4.218434914946556E-004;-7.486475165933371E-003;6.263894611038268E-004;
2.406666666666667E+009;1.808871924877167E-001;3.403737209737301E-004;-7.457051891833544E-003;9.386029560118914E-004;
2.406833333333334E+009;1.809937208890915E-001;-4.478951450437307E-005;-7.518736179918051E-003;1.208357396535575E-003;
2.407000000000000E+009;1.810800582170487E-001;-1.455965830245987E-004;-7.322814315557480E-003;1.341510680504143E-003;
2.407166666666667E+009;1.810673922300339E-001;-2.512879145797342E-004;-7.193969096988440E-003;1.791584189049900E-003;
2.407333333333334E+009;1.807299256324768E-001;-6.048755603842437E-004;-7.117785979062319E-003;2.221416682004929E-003;
2.407500000000000E+009;1.805305629968643E-001;-6.519642192870379E-004;-6.983494851738215E-003;2.431421075016260E-003;
2.407666666666667E+009;1.801441311836243E-001;-1.079655485227704E-003;-6.599183660000563E-003;2.551906509324908E-003;
2.407833333333334E+009;1.796918362379074E-001;-1.592325163073838E-003;-6.614105310291052E-003;2.897801343351603E-003;
2.408000000000000E+009;1.791524738073349E-001;-2.074841875582933E-003;-6.252381950616837E-003;3.139066509902477E-003;
2.408166666666667E+009;1.786074340343475E-001;-2.430961932986975E-003;-6.190523970872164E-003;3.388654440641403E-003;
2.408333333333334E+009;1.780857741832733E-001;-3.036749316379428E-003;-5.971080157905817E-003;3.590579843148589E-003;
2.408500000000000E+009;1.773895621299744E-001;-3.885440994054079E-003;-5.819055717438459E-003;3.774759359657764E-003;
2.408666666666667E+009;1.767391115427017E-001;-4.589159972965717E-003;-5.593501962721348E-003;4.243653733283281E-003;
2.408833333333334E+009;1.757589876651764E-001;-5.463714711368084E-003;-5.317548289895058E-003;3.947394434362650E-003;
2.409000000000000E+009;1.751616001129150E-001;-6.345065776258707E-003;-5.174882244318724E-003;4.213156178593636E-003;
2.409166666666667E+009;1.743861287832260E-001;-7.405109703540802E-003;-4.852826707065105E-003;4.497565794736147E-003;
2.409333333333334E+009;1.735600382089615E-001;-8.683848194777966E-003;-4.663852509111166E-003;4.489812068641186E-003;
2.409500000000000E+009;1.725749075412750E-001;-9.987168945372105E-003;-4.392947535961866E-003;4.700976423919201E-003;
2.409666666666667E+009;1.718695312738419E-001;-1.128886733204126E-002;-4.266080446541309E-003;4.629006609320641E-003;
2.409833333333334E+009;1.710398197174072E-001;-1.260458026081324E-002;-4.232428967952728E-003;4.909330047667027E-003;
2.410000000000000E+009;1.702595353126526E-001;-1.405358966439962E-002;-3.793425625190139E-003;4.907668568193913E-003;
2.410166666666667E+009;1.694877743721008E-001;-1.557387504726648E-002;-3.645752090960741E-003;4.866755567491055E-003;
2.410333333333334E+009;1.688582748174667E-001;-1.729080267250538E-002;-3.503647167235613E-003;4.906175192445517E-003;
2.410500000000000E+009;1.681506782770157E-001;-1.901691220700741E-002;-3.137065563350916E-003;4.750233143568039E-003;
2.410666666666667E+009;1.675342768430710E-001;-2.087194100022316E-002;-3.072481136769056E-003;4.988208878785372E-003;
2.410833333333334E+009;1.667572855949402E-001;-2.243989519774914E-002;-2.983266487717629E-003;5.072505678981543E-003;
2.411000000000000E+009;1.664707809686661E-001;-2.434537373483181E-002;-2.786886878311634E-003;5.121229216456413E-003;
2.411166666666667E+009;1.659120619297028E-001;-2.649301663041115E-002;-2.671947004273534E-003;5.126308184117079E-003;
2.411333333333334E+009;1.655581742525101E-001;-2.828145213425160E-002;-2.590560354292393E-003;5.066286306828260E-003;
2.411500000000000E+009;1.652121990919113E-001;-3.055185452103615E-002;-2.564777387306094E-003;5.273920949548483E-003;
2.411666666666667E+009;1.652033776044846E-001;-3.252791240811348E-002;-2.343385014683008E-003;5.227817688137293E-003;
2.411833333333334E+009;1.651285439729691E-001;-3.446581587195396E-002;-2.095967531204224E-003;5.234188865870237E-003;
2.412000000000000E+009;1.649980545043945E-001;-3.652207553386688E-002;-1.916213892400265E-003;5.487523041665554E-003;
2.412166666666667E+009;1.649632006883621E-001;-3.865683451294899E-002;-1.766544417478144E-003;5.525899119675160E-003;
2.412333333333334E+009;1.652399301528931E-001;-4.062364250421524E-002;-1.902435440570116E-003;5.435183178633452E-003;
2.412500000000000E+009;1.653620898723602E-001;-4.254711046814919E-002;-1.583034405484796E-003;5.559044424444437E-003;
2.412666666666667E+009;1.655800044536591E-001;-4.480401426553726E-002;-1.278347452171147E-003;5.661679897457361E-003;
2.412833333333334E+009;1.659611463546753E-001;-4.665842279791832E-002;-1.289284205995500E-003;5.676142405718565E-003;
2.413000000000000E+009;1.663248836994171E-001;-4.848596826195717E-002;-9.581433259882033E-004;5.772654898464680E-003;
2.413166666666667E+009;1.668043136596680E-001;-5.026745051145554E-002;-9.007716435007751E-004;5.732001736760140E-003;
2.413333333333334E+009;1.670484691858292E-001;-5.214142054319382E-002;-5.534963565878570E-004;5.840933881700039E-003;
2.413500000000000E+009;1.677453368902206E-001;-5.385702475905418E-002;-4.164597485214472E-004;5.858559161424637E-003;
2.413666666666667E+009;1.682441830635071E-001;-5.552573129534721E-002;-3.030200023204088E-004;5.935257300734520E-003;
2.413833333333334E+009;1.686920672655106E-001;-5.705450847744942E-002;4.695351526606828E-005;5.960543174296618E-003;
2.414000000000000E+009;1.690906137228012E-001;-5.860847234725952E-002;3.654000465758145E-004;5.941711366176605E-003;
2.414166666666667E+009;1.698102504014969E-001;-5.985333397984505E-002;4.071022849529982E-004;5.901933182030916E-003;
2.414333333333334E+009;1.703526377677918E-001;-6.115221604704857E-002;6.649460410699248E-004;5.836409982293844E-003;
2.414500000000000E+009;1.711717993021011E-001;-6.244753673672676E-002;1.080692512914538E-003;5.823617801070213E-003;
2.414666666666667E+009;1.715032309293747E-001;-6.334000825881958E-002;1.227323897182941E-003;5.854332353919745E-003;
2.414833333333334E+009;1.720461696386337E-001;-6.449148803949356E-002;1.417255494743586E-003;5.720659624785185E-003;
2.415000000000000E+009;1.724829077720642E-001;-6.521117687225342E-002;1.702062087133527E-003;5.557669792324305E-003;
2.415166666666667E+009;1.730113625526428E-001;-6.604556739330292E-002;1.952157937921584E-003;5.722795147448778E-003;
2.415333333333334E+009;1.735731959342957E-001;-6.684373319149017E-002;2.005759859457612E-003;5.466499831527472E-003;
2.415500000000000E+009;1.739289015531540E-001;-6.727541983127594E-002;2.385037252679467E-003;5.397045519202948E-003;
2.415666666666667E+009;1.741122752428055E-001;-6.790062785148621E-002;2.590242074802518E-003;5.361022427678108E-003;
2.415833333333334E+009;1.745555102825165E-001;-6.833545863628388E-002;2.741676289588213E-003;5.215557292103767E-003;
2.416000000000000E+009;1.744769364595413E-001;-6.873833388090134E-002;2.893063472583890E-003;5.036305170506239E-003;
2.416166666666667E+009;1.747836172580719E-001;-6.900918483734131E-002;3.129806602373719E-003;4.986079409718514E-003;
2.416333333333334E+009;1.747494786977768E-001;-6.917789578437805E-002;3.275693161413074E-003;4.845041781663895E-003;
2.416500000000000E+009;1.746030300855637E-001;-6.958834826946259E-002;3.546205814927816E-003;4.465739708393812E-003;
2.416666666666667E+009;1.742916405200958E-001;-6.965338438749313E-002;3.559019416570664E-003;4.361948464065790E-003;
2.416833333333334E+009;1.742676198482513E-001;-6.987845152616501E-002;3.844135440886021E-003;4.229032900184393E-003;
2.417000000000000E+009;1.737825125455856E-001;-7.002062350511551E-002;3.966449759900570E-003;4.152503795921803E-003;
2.417166666666667E+009;1.733052134513855E-001;-7.010200619697571E-002;4.125621635466814E-003;3.916233312338591E-003;
2.417333333333334E+009;1.727467328310013E-001;-6.999462842941284E-002;4.299216903746128E-003;3.683413844555616E-003;
2.417500000000000E+009;1.719918251037598E-001;-7.029014080762863E-002;4.299168009310961E-003;3.540852572768927E-003;
2.417666666666667E+009;1.713702082633972E-001;-7.027260214090347E-002;4.442237783223391E-003;3.219950711354613E-003;
2.417833333333334E+009;1.704642325639725E-001;-7.032202929258347E-002;4.563795402646065E-003;2.940893406048417E-003;
2.418000000000000E+009;1.695250868797302E-001;-7.057892531156540E-002;4.439847078174353E-003;2.952002920210362E-003;
2.418166666666667E+009;1.684889495372772E-001;-7.072402536869049E-002;4.557881038635969E-003;2.772447187453508E-003;
2.418333333333334E+009;1.676314622163773E-001;-7.105236500501633E-002;4.774539731442928E-003;2.508994424715638E-003;
2.418500000000000E+009;1.664027422666550E-001;-7.133518159389496E-002;4.769720137119293E-003;2.497042994946241E-003;
2.418666666666667E+009;1.652919352054596E-001;-7.176483422517777E-002;4.737917333841324E-003;2.211895305663347E-003;
2.418833333333334E+009;1.638928949832916E-001;-7.210924476385117E-002;4.711639601737261E-003;1.910865656100214E-003;
2.419000000000000E+009;1.625890433788300E-001;-7.272221148014069E-002;4.782676696777344E-003;1.904421718791127E-003;
2.419166666666667E+009;1.612223535776138E-001;-7.310861349105835E-002;4.708077758550644E-003;1.632943283766508E-003;
2.419333333333334E+009;1.599138677120209E-001;-7.354093343019486E-002;4.783379845321178E-003;1.477162237279117E-003;
2.419500000000000E+009;1.585337966680527E-001;-7.452359795570374E-002;4.761506337672472E-003;1.498143305070698E-003;
2.419666666666667E+009;1.571954339742661E-001;-7.530884444713593E-002;4.862664267420769E-003;1.235631643794477E-003;
2.419833333333334E+009;1.558748036623001E-001;-7.604781538248062E-002;4.909319803118706E-003;1.063287607394159E-003;
2.420000000000000E+009;1.544540226459503E-001;-7.703481614589691E-002;4.867315292358398E-003;7.581171230413020E-004;
2.420166666666667E+009;1.533273607492447E-001;-7.810232788324356E-002;4.908758681267500E-003;7.460367050953209E-004;
2.420333333333334E+009;1.520700752735138E-001;-7.944304496049881E-002;4.884554538875818E-003;7.001782068982720E-004;
2.420500000000000E+009;1.509286314249039E-001;-8.048608154058456E-002;4.797798581421375E-003;4.392268019728363E-004;
2.420666666666667E+009;1.496836990118027E-001;-8.169562369585037E-002;4.970702342689037E-003;1.087871278286912E-004;
2.420833333333334E+009;1.485785394906998E-001;-8.318485319614410E-002;4.900934174656868E-003;1.466827961849049E-004;
2.421000000000000E+009;1.474151164293289E-001;-8.475254476070404E-002;4.944489337503910E-003;3.781921986956149E-005;
2.421166666666667E+009;1.466151922941208E-001;-8.622600138187408E-002;4.770693369209766E-003;-2.241724287159741E-004;
2.421333333333334E+009;1.457383483648300E-001;-8.779820054769516E-002;4.887733142822981E-003;-4.019655461888760E-004;
2.421500000000000E+009;1.447543054819107E-001;-8.936683088541031E-002;4.812409169971943E-003;-5.699627799913287E-004;
2.421666666666667E+009;1.442217528820038E-001;-9.119003266096115E-002;4.707294050604105E-003;-7.956319022923708E-004;
2.421833333333334E+009;1.436506658792496E-001;-9.300698339939117E-002;4.643988329917193E-003;-9.926627390086651E-004;
2.422000000000000E+009;1.431157290935516E-001;-9.466332197189331E-002;4.581433255225420E-003;-1.223706407472491E-003;
2.422166666666667E+009;1.427424848079681E-001;-9.647943824529648E-002;4.398919641971588E-003;-1.239104429259896E-003;
2.422333333333334E+009;1.423701047897339E-001;-9.810629487037659E-002;4.293905105441809E-003;-1.433202996850014E-003;
2.422500000000000E+009;1.420272439718247E-001;-9.991757571697235E-002;4.439509939402342E-003;-1.636680332012475E-003;
2.422666666666667E+009;1.419039517641068E-001;-1.018866077065468E-001;4.303219262510538E-003;-1.734626130200923E-003;
2.422833333333334E+009;1.418394148349762E-001;-1.035420820116997E-001;4.298280458897352E-003;-1.855600741691887E-003;
2.423000000000000E+009;1.419525891542435E-001;-1.053338348865509E-001;4.174697678536177E-003;-2.145634964108467E-003;
2.423166666666667E+009;1.421257108449936E-001;-1.071450114250183E-001;3.990693949162960E-003;-2.055879915133119E-003;
2.423333333333334E+009;1.424174755811691E-001;-1.086556389927864E-001;4.013631958514452E-003;-2.337197540327907E-003;
2.423500000000000E+009;1.425462514162064E-001;-1.102307662367821E-001;3.719686530530453E-003;-2.395837800577283E-003;
2.423666666666667E+009;1.426966339349747E-001;-1.120410636067390E-001;3.805270884186029E-003;-2.531108446419239E-003;
2.423833333333334E+009;1.432846188545227E-001;-1.134848296642304E-001;3.512293566018343E-003;-2.674391027539969E-003;
2.424000000000000E+009;1.435348838567734E-001;-1.147397458553314E-001;3.544133156538010E-003;-2.619754523038864E-003;
2.424166666666667E+009;1.439331024885178E-001;-1.162428408861160E-001;3.402582835406065E-003;-2.731180517002940E-003;
2.424333333333334E+009;1.444638371467590E-001;-1.174830943346024E-001;3.461960470303893E-003;-2.960865618661046E-003;
2.424500000000000E+009;1.450098901987076E-001;-1.187382116913796E-001;3.340877825394273E-003;-3.039808012545109E-003;
2.424666666666667E+009;1.456699371337891E-001;-1.198289021849632E-001;3.002299461513758E-003;-3.285257844254375E-003;
2.424833333333334E+009;1.461361646652222E-001;-1.208246424794197E-001;2.835415536537767E-003;-3.274494549259543E-003;
2.425000000000000E+009;1.466760635375977E-001;-1.217773482203484E-001;2.903704764321446E-003;-3.502088831737638E-003;
2.425166666666667E+009;1.469698101282120E-001;-1.224609687924385E-001;2.577130217105150E-003;-3.629751969128847E-003;
2.425333333333334E+009;1.474817991256714E-001;-1.232962086796761E-001;2.609671326354146E-003;-3.723894711583853E-003;
2.425500000000000E+009;1.479406952857971E-001;-1.240098848938942E-001;2.380288206040859E-003;-3.788175759837031E-003;
2.425666666666667E+009;1.481835097074509E-001;-1.246347650885582E-001;2.138084033504129E-003;-3.879884956404567E-003;
2.425833333333334E+009;1.485919803380966E-001;-1.250860095024109E-001;1.897326088510454E-003;-4.025929141789675E-003;
2.426000000000000E+009;1.488620638847351E-001;-1.255206465721130E-001;1.756952842697501E-003;-4.100050777196884E-003;
2.426166666666667E+009;1.491731554269791E-001;-1.258148699998856E-001;1.540886121802032E-003;-4.081125836819410E-003;
2.426333333333334E+009;1.491391211748123E-001;-1.260087341070175E-001;1.252018730156124E-003;-4.021270200610161E-003;
2.426500000000000E+009;1.492505520582199E-001;-1.262324750423431E-001;1.156674465164542E-003;-4.159764386713505E-003;
2.426666666666667E+009;1.493677049875259E-001;-1.260960400104523E-001;8.988051558844745E-004;-4.033034667372704E-003;
2.426833333333334E+009;1.491512954235077E-001;-1.261840015649796E-001;8.147291373461485E-004;-4.103602841496468E-003;
2.427000000000000E+009;1.488873809576035E-001;-1.262282431125641E-001;6.422151345759630E-004;-4.035674501210451E-003;
2.427166666666667E+009;1.485934704542160E-001;-1.261639893054962E-001;3.584417863748968E-004;-3.906594123691320E-003;
2.427333333333334E+009;1.480348259210587E-001;-1.260724812746048E-001;2.261177287437022E-004;-3.900690935552120E-003;
2.427500000000000E+009;1.476932764053345E-001;-1.258989870548248E-001;2.260129258502275E-004;-3.822280326858163E-003;
2.427666666666667E+009;1.470074802637100E-001;-1.258774995803833E-001;-4.009845724795014E-005;-3.898898372426629E-003;
