# Version 1.00
#
freq[Hz];re:Trc1_S11;im:Trc1_S11;re:Trc2_S21;im:Trc2_S21;
2.400000000000000E+009;1.619647294282913E-001;5.295909568667412E-002;2.475774672348052E-004;-6.216053385287523E-003;
2.400166666666667E+009;1.618700772523880E-001;5.143312364816666E-002;6.056499842088670E-005;-6.181932054460049E-003;
2.400333333333334E+009;1.617634296417236E-001;4.932313039898872E-002;-7.548143912572414E-005;-6.413674913346767E-003;
2.400500000000000E+009;1.615748107433319E-001;4.730597138404846E-002;-2.368998102610931E-004;-6.392336450517178E-003;
2.400666666666667E+009;1.615500152111054E-001;4.519676789641380E-002;-5.917212693020701E-004;-6.550936028361321E-003;
2.400833333333334E+009;1.616666764020920E-001;4.317056015133858E-002;-8.891703910194337E-004;-6.504326127469540E-003;
2.401000000000000E+009;1.616460382938385E-001;4.119803383946419E-002;-1.022415235638619E-003;-6.557000800967217E-003;
2.401166666666667E+009;1.618003398180008E-001;3.899708762764931E-002;-1.414974220097065E-003;-6.624968722462654E-003;
2.401333333333334E+009;1.620308458805084E-001;3.667054325342178E-002;-1.354976440779865E-003;-6.631298922002316E-003;
2.401500000000000E+009;1.622687131166458E-001;3.472087904810906E-002;-1.782730221748352E-003;-6.752551998943090E-003;
2.401666666666667E+009;1.625104844570160E-001;3.266507759690285E-002;-2.154552610591054E-003;-6.786421407014132E-003;
2.401833333333334E+009;1.628776788711548E-001;3.044004179537296E-002;-2.472035586833954E-003;-6.594758015125990E-003;
2.402000000000000E+009;1.629811227321625E-001;2.843958325684071E-002;-2.736177062615752E-003;-6.772158201783896E-003;
2.402166666666667E+009;1.634143590927124E-001;2.622369118034840E-002;-3.066503209993243E-003;-6.466623861342669E-003;
2.402333333333334E+009;1.640470474958420E-001;2.433074079453945E-002;-3.304502926766872E-003;-6.498903036117554E-003;
2.402500000000000E+009;1.648036241531372E-001;2.256275340914726E-002;-3.592452732846141E-003;-6.380546838045120E-003;
2.402666666666667E+009;1.652243137359619E-001;2.084611169993877E-002;-3.864842699840665E-003;-6.400500889867544E-003;
2.402833333333334E+009;1.660313755273819E-001;1.877894438803196E-002;-4.298286512494087E-003;-6.068389397114515E-003;
2.403000000000000E+009;1.664911508560181E-001;1.725917495787144E-002;-4.526843316853046E-003;-6.021372973918915E-003;
2.403166666666667E+009;1.674664765596390E-001;1.574665121734142E-002;-4.887786228209734E-003;-5.787404254078865E-003;
2.403333333333334E+009;1.681580543518066E-001;1.396214589476585E-002;-5.354329012334347E-003;-5.718076601624489E-003;
2.403500000000000E+009;1.688399165868759E-001;1.250754576176405E-002;-5.417053587734699E-003;-5.508001893758774E-003;
2.403666666666667E+009;1.698955148458481E-001;1.125664077699184E-002;-5.765103735029697E-003;-5.280626937747002E-003;
2.403833333333334E+009;1.708274632692337E-001;1.002266909927130E-002;-5.994104314595461E-003;-4.984132479876280E-003;
2.404000000000000E+009;1.716562211513519E-001;8.714010939002037E-003;-6.432128604501486E-003;-4.631294403225184E-003;
2.404166666666667E+009;1.724928915500641E-001;7.703013252466917E-003;-6.514936685562134E-003;-4.529005847871304E-003;
2.404333333333334E+009;1.732864081859589E-001;6.775302346795797E-003;-6.764165591448546E-003;-4.034677054733038E-003;
2.404500000000000E+009;1.740781366825104E-001;5.591253750026226E-003;-6.898343097418547E-003;-3.732827492058277E-003;
2.404666666666667E+009;1.749108582735062E-001;4.754233174026012E-003;-7.116681896150112E-003;-3.624974982813001E-003;
2.404833333333334E+009;1.756495237350464E-001;3.915573470294476E-003;-7.519657257944346E-003;-3.073856467381120E-003;
2.405000000000000E+009;1.764292716979981E-001;3.423356916755438E-003;-7.404698524624109E-003;-2.454038243740797E-003;
2.405166666666667E+009;1.772961169481278E-001;2.863044384866953E-003;-7.531484123319387E-003;-2.430170774459839E-003;
2.405333333333334E+009;1.779133230447769E-001;2.217324217781425E-003;-7.579042110592127E-003;-1.987435622140765E-003;
2.405500000000000E+009;1.785891205072403E-001;1.743417116813362E-003;-8.084736764431000E-003;-1.526041422039270E-003;
2.405666666666667E+009;1.791362315416336E-001;1.431481330655515E-003;-7.953030988574028E-003;-1.144037465564907E-003;
2.405833333333334E+009;1.793579161167145E-001;1.247442560270429E-003;-7.700000423938036E-003;-5.399686633609235E-004;
2.406000000000000E+009;1.801072061061859E-001;9.817706886678934E-004;-7.683726027607918E-003;-4.691302019637078E-004;
2.406166666666667E+009;1.802043467760086E-001;8.673762204125524E-004;-7.679071743041277E-003;6.899770232848823E-005;
2.406333333333334E+009;1.806854605674744E-001;6.264549447223544E-004;-7.699524983763695E-003;2.642805629875511E-004;
2.406500000000000E+009;1.809984594583511E-001;4.327800997998565E-004;-7.485162466764450E-003;6.062366883270443E-004;
2.406666666666667E+009;1.809815615415573E-001;2.507543540559709E-004;-7.592983543872833E-003;1.050712075084448E-003;
2.406833333333334E+009;1.810663193464279E-001;-2.045167639153078E-005;-7.439525797963142E-003;1.416537677869201E-003;
2.407000000000000E+009;1.811259835958481E-001;-4.441301643964835E-005;-7.324918638914824E-003;1.556474715471268E-003;
2.407166666666667E+009;1.810164302587509E-001;-2.447914739605039E-004;-7.134605199098587E-003;2.036792226135731E-003;
2.407333333333334E+009;1.806439161300659E-001;-6.287572905421257E-004;-6.997840013355017E-003;2.258320339024067E-003;
2.407500000000000E+009;1.805189251899719E-001;-8.857930661179125E-004;-6.873694248497486E-003;2.413817681372166E-003;
2.407666666666667E+009;1.802358478307724E-001;-1.098276348784566E-003;-6.689933594316244E-003;2.678748453035951E-003;
2.407833333333334E+009;1.795775741338730E-001;-1.582853612489998E-003;-6.550471764057875E-003;2.982704201713204E-003;
2.408000000000000E+009;1.792545467615128E-001;-2.098079072311521E-003;-6.253488361835480E-003;3.204903332516551E-003;
2.408166666666667E+009;1.786087155342102E-001;-2.441916847601533E-003;-6.169696338474751E-003;3.466199385002255E-003;
2.408333333333334E+009;1.780708581209183E-001;-3.092002589255571E-003;-6.131672766059637E-003;3.622074145823717E-003;
2.408500000000000E+009;1.774461716413498E-001;-3.852967638522387E-003;-5.693194922059774E-003;3.824090119451284E-003;
2.408666666666667E+009;1.766880303621292E-001;-4.636921454221010E-003;-5.359417758882046E-003;3.908295184373856E-003;
2.408833333333334E+009;1.758476197719574E-001;-5.488911177963018E-003;-5.284709855914116E-003;3.988475073128939E-003;
2.409000000000000E+009;1.749657392501831E-001;-6.255718879401684E-003;-5.096808075904846E-003;4.245846997946501E-003;
2.409166666666667E+009;1.743205934762955E-001;-7.361507508903742E-003;-4.815407097339630E-003;4.363969434052706E-003;
2.409333333333334E+009;1.735009700059891E-001;-8.655423298478127E-003;-4.711837973445654E-003;4.661604296416044E-003;
2.409500000000000E+009;1.727227270603180E-001;-9.994249790906906E-003;-4.511606413871050E-003;4.780915100127459E-003;
2.409666666666667E+009;1.716439574956894E-001;-1.117428205907345E-002;-4.259619861841202E-003;4.785089753568173E-003;
2.409833333333334E+009;1.710269153118134E-001;-1.238176692277193E-002;-3.869602922350168E-003;4.949617199599743E-003;
2.410000000000000E+009;1.703286170959473E-001;-1.393386162817478E-002;-3.716091858223081E-003;4.835148807615042E-003;
2.410166666666667E+009;1.693657189607620E-001;-1.565463468432427E-002;-3.673705272376537E-003;4.793163388967514E-003;
2.410333333333334E+009;1.687438488006592E-001;-1.716122403740883E-002;-3.346022916957736E-003;4.864869173616171E-003;
2.410500000000000E+009;1.681091338396072E-001;-1.896611228585243E-002;-3.176750382408500E-003;5.001056008040905E-003;
2.410666666666667E+009;1.675519794225693E-001;-2.085456997156143E-002;-3.135052509605885E-003;5.106683820486069E-003;
2.410833333333334E+009;1.669838875532150E-001;-2.260040864348412E-002;-2.888143295422196E-003;5.032564979046583E-003;
2.411000000000000E+009;1.664216369390488E-001;-2.444013766944408E-002;-2.676575910300016E-003;5.214005243033171E-003;
2.411166666666667E+009;1.661769449710846E-001;-2.656089514493942E-002;-2.655524527654052E-003;5.053197033703327E-003;
2.411333333333334E+009;1.657034009695053E-001;-2.838932722806931E-002;-2.503573428839445E-003;5.094899795949459E-003;
2.411500000000000E+009;1.652255207300186E-001;-3.057477623224258E-002;-2.539712935686112E-003;5.108991172164679E-003;
2.411666666666667E+009;1.652959138154984E-001;-3.263061866164208E-002;-2.237036591395736E-003;5.235266406089068E-003;
2.411833333333334E+009;1.652892231941223E-001;-3.448903560638428E-002;-2.097672782838345E-003;5.145004950463772E-003;
2.412000000000000E+009;1.649998724460602E-001;-3.677678480744362E-002;-1.987735042348504E-003;5.356064531952143E-003;
2.412166666666667E+009;1.648239493370056E-001;-3.865018859505653E-002;-1.801850856281817E-003;5.393464583903551E-003;
2.412333333333334E+009;1.652317941188812E-001;-4.066013172268868E-002;-1.757303602062166E-003;5.473737139254808E-003;
2.412500000000000E+009;1.654453724622726E-001;-4.260073229670525E-002;-1.613645930774510E-003;5.531290546059609E-003;
2.412666666666667E+009;1.657498180866242E-001;-4.479832947254181E-002;-1.278882380574942E-003;5.602643359452486E-003;
2.412833333333334E+009;1.659701317548752E-001;-4.664139822125435E-002;-1.341938390396535E-003;5.822394508868456E-003;
2.413000000000000E+009;1.663548350334168E-001;-4.842871800065041E-002;-9.360450785607100E-004;5.755141843110323E-003;
2.413166666666667E+009;1.666946858167648E-001;-5.041879788041115E-002;-8.104703156277537E-004;5.824952386319637E-003;
2.413333333333334E+009;1.670430004596710E-001;-5.224121734499931E-002;-5.569751956500113E-004;5.908446386456490E-003;
2.413500000000000E+009;1.676647812128067E-001;-5.381752923130989E-002;-3.298538795206696E-004;5.819291807711124E-003;
2.413666666666667E+009;1.682142317295075E-001;-5.551227554678917E-002;-1.443172513972968E-004;5.866976454854012E-003;
2.413833333333334E+009;1.685089617967606E-001;-5.695480108261108E-002;1.804423518478870E-004;6.077157799154520E-003;
2.414000000000000E+009;1.691241115331650E-001;-5.861787497997284E-002;4.545179544948041E-004;6.093984004110098E-003;
2.414166666666667E+009;1.697686165571213E-001;-5.991942435503006E-002;6.147363455966115E-004;5.948233883827925E-003;
2.414333333333334E+009;1.703286617994309E-001;-6.113676726818085E-002;8.418691577389836E-004;5.900422576814890E-003;
2.414500000000000E+009;1.709888875484467E-001;-6.235107779502869E-002;1.172783551737666E-003;5.824567750096321E-003;
2.414666666666667E+009;1.714930534362793E-001;-6.335646659135819E-002;1.397156040184200E-003;5.846790503710508E-003;
2.414833333333334E+009;1.720737814903259E-001;-6.434265524148941E-002;1.603730721399188E-003;5.788517650216818E-003;
2.415000000000000E+009;1.723821610212326E-001;-6.520493328571320E-002;1.791896997019649E-003;5.800926592200995E-003;
2.415166666666667E+009;1.729934215545654E-001;-6.606917828321457E-002;2.059996128082275E-003;5.713298916816711E-003;
2.415333333333334E+009;1.734767109155655E-001;-6.685679405927658E-002;2.228285185992718E-003;5.285821389406920E-003;
2.415500000000000E+009;1.738483011722565E-001;-6.736407428979874E-002;2.479122253134847E-003;5.389062222093344E-003;
2.415666666666667E+009;1.740608811378479E-001;-6.791286170482636E-002;2.594343153759837E-003;5.291385576128960E-003;
2.415833333333334E+009;1.744735687971115E-001;-6.833829730749130E-002;2.826169831678271E-003;5.224606022238731E-003;
2.416000000000000E+009;1.744566410779953E-001;-6.869153678417206E-002;3.040439449250698E-003;5.026135127991438E-003;
2.416166666666667E+009;1.747465729713440E-001;-6.903333961963654E-002;3.253756323829293E-003;4.991229623556137E-003;
2.416333333333334E+009;1.746480315923691E-001;-6.919626146554947E-002;3.414085367694497E-003;4.697068128734827E-003;
2.416500000000000E+009;1.746579408645630E-001;-6.946209818124771E-002;3.661207389086485E-003;4.534692037850618E-003;
2.416666666666667E+009;1.743642538785934E-001;-6.970535218715668E-002;3.774996846914291E-003;4.474185407161713E-003;
2.416833333333334E+009;1.741830855607987E-001;-6.990277767181397E-002;3.975473809987307E-003;4.301013890653849E-003;
2.417000000000000E+009;1.737125515937805E-001;-6.992605328559876E-002;3.960194531828165E-003;3.864434314891696E-003;
2.417166666666667E+009;1.732833087444305E-001;-7.001499086618424E-002;4.186102189123631E-003;3.762260079383850E-003;
2.417333333333334E+009;1.727848351001740E-001;-7.005298137664795E-002;4.308501258492470E-003;3.589713247492909E-003;
2.417500000000000E+009;1.719787120819092E-001;-7.025124132633209E-002;4.358776379376650E-003;3.432748839259148E-003;
2.417666666666667E+009;1.713730394840241E-001;-7.030796259641647E-002;4.379673395305872E-003;3.369644982740283E-003;
2.417833333333334E+009;1.705443114042282E-001;-7.028455287218094E-002;4.490806255489588E-003;2.923111431300640E-003;
2.418000000000000E+009;1.695266813039780E-001;-7.063115388154984E-002;4.618785809725523E-003;2.739114221185446E-003;
2.418166666666667E+009;1.685234159231186E-001;-7.063667476177216E-002;4.701483994722366E-003;2.658676588907838E-003;
2.418333333333334E+009;1.676897853612900E-001;-7.104652374982834E-002;4.618166014552116E-003;2.520940965041518E-003;
2.418500000000000E+009;1.664278954267502E-001;-7.124900072813034E-002;4.657817073166370E-003;2.316270256415010E-003;
2.418666666666667E+009;1.652782559394836E-001;-7.164839655160904E-002;4.767183680087328E-003;2.213426632806659E-003;
2.418833333333334E+009;1.638855189085007E-001;-7.198593020439148E-002;4.806024488061667E-003;1.904649077914655E-003;
2.419000000000000E+009;1.626096069812775E-001;-7.240457087755203E-002;4.810346756130457E-003;1.807335764169693E-003;
2.419166666666667E+009;1.613620519638062E-001;-7.314437627792358E-002;4.803125746548176E-003;1.570839667692781E-003;
2.419333333333334E+009;1.598157137632370E-001;-7.367523014545441E-002;4.899992141872644E-003;1.577668357640505E-003;
2.419500000000000E+009;1.585607826709747E-001;-7.452104985713959E-002;4.806991666555405E-003;1.248700893484056E-003;
2.419666666666667E+009;1.572427600622177E-001;-7.527694851160049E-002;4.805401433259249E-003;1.240781624801457E-003;
2.419833333333334E+009;1.557976752519608E-001;-7.601861655712128E-002;4.835779778659344E-003;1.157659455202520E-003;
2.420000000000000E+009;1.546494960784912E-001;-7.711551338434219E-002;4.979204852133989E-003;8.942012791521847E-004;
2.420166666666667E+009;1.533057838678360E-001;-7.813079655170441E-002;4.831481259316206E-003;7.562437094748020E-004;
2.420333333333334E+009;1.519752740859985E-001;-7.930651307106018E-002;4.806504119187594E-003;4.793441912624985E-004;
2.420500000000000E+009;1.508874297142029E-001;-8.053270727396011E-002;4.880658816546202E-003;3.512902185320854E-004;
2.420666666666667E+009;1.495317369699478E-001;-8.177988976240158E-002;5.001781042665243E-003;1.882948272395879E-004;
2.420833333333334E+009;1.485840976238251E-001;-8.324158191680908E-002;4.841761663556099E-003;9.230077557731420E-005;
2.421000000000000E+009;1.474370509386063E-001;-8.473055809736252E-002;4.885915201157332E-003;-1.568580628372729E-004;
2.421166666666667E+009;1.465450227260590E-001;-8.626145869493485E-002;4.794624634087086E-003;-1.804165658541024E-004;
2.421333333333334E+009;1.458296030759811E-001;-8.791133761405945E-002;4.874090664088726E-003;-5.244577769190073E-004;
2.421500000000000E+009;1.449857056140900E-001;-8.949115872383118E-002;4.814680665731430E-003;-5.647272919304669E-004;
2.421666666666667E+009;1.441946774721146E-001;-9.107960760593414E-002;4.654384683817625E-003;-7.908350089564920E-004;
2.421833333333334E+009;1.436623632907867E-001;-9.282864630222321E-002;4.621710628271103E-003;-9.335792856290937E-004;
2.422000000000000E+009;1.430831253528595E-001;-9.461470693349838E-002;4.573490470647812E-003;-1.113533740863204E-003;
2.422166666666667E+009;1.426668018102646E-001;-9.667167812585831E-002;4.454593639820814E-003;-1.381649868562818E-003;
2.422333333333334E+009;1.422994732856751E-001;-9.823604673147202E-002;4.404805600643158E-003;-1.350698410533369E-003;
2.422500000000000E+009;1.420728862285614E-001;-9.990504384040833E-002;4.273649305105209E-003;-1.742535387165844E-003;
2.422666666666667E+009;1.417514979839325E-001;-1.017640903592110E-001;4.217489156872034E-003;-1.817680313251913E-003;
2.422833333333334E+009;1.418297439813614E-001;-1.036575958132744E-001;4.214036744087935E-003;-2.049922477453947E-003;
2.423000000000000E+009;1.419029980897903E-001;-1.052976548671722E-001;3.973048180341721E-003;-2.118900418281555E-003;
2.423166666666667E+009;1.420122534036636E-001;-1.070080697536469E-001;4.003529902547598E-003;-2.250993857160211E-003;
2.423333333333334E+009;1.423061341047287E-001;-1.085191220045090E-001;3.824210958555341E-003;-2.232009079307318E-003;
2.423500000000000E+009;1.425758451223373E-001;-1.103470027446747E-001;3.867595689371228E-003;-2.349956892430782E-003;
2.423666666666667E+009;1.426169723272324E-001;-1.119102761149406E-001;3.677156288176775E-003;-2.544993534684181E-003;
2.423833333333334E+009;1.432517915964127E-001;-1.134768351912499E-001;3.699322463944554E-003;-2.535352483391762E-003;
2.424000000000000E+009;1.435439884662628E-001;-1.148483678698540E-001;3.409076482057571E-003;-2.663344144821167E-003;
2.424166666666667E+009;1.439500451087952E-001;-1.162479370832443E-001;3.513393225148320E-003;-2.710466505959630E-003;
2.424333333333334E+009;1.445225924253464E-001;-1.174401268362999E-001;3.255982650443912E-003;-3.001273842528462E-003;
2.424500000000000E+009;1.449909210205078E-001;-1.187960505485535E-001;3.140038810670376E-003;-2.965789055451751E-003;
2.424666666666667E+009;1.456113159656525E-001;-1.197653934359551E-001;3.048903541639447E-003;-3.167579183354974E-003;
2.424833333333334E+009;1.459378004074097E-001;-1.208109259605408E-001;2.876999555155635E-003;-3.339432645589113E-003;
2.425000000000000E+009;1.465301066637039E-001;-1.217350587248802E-001;2.616089303046465E-003;-3.528845030814409E-003;
2.425166666666667E+009;1.468619704246521E-001;-1.225628033280373E-001;2.696688985452056E-003;-3.528597531840205E-003;
2.425333333333334E+009;1.474736481904984E-001;-1.232489272952080E-001;2.452997257933021E-003;-3.630824619904161E-003;
2.425500000000000E+009;1.480004042387009E-001;-1.240980923175812E-001;2.305281115695834E-003;-3.682818729430437E-003;
2.425666666666667E+009;1.481383740901947E-001;-1.245732232928276E-001;2.196423010900617E-003;-3.776501398533583E-003;
2.425833333333334E+009;1.485827714204788E-001;-1.250102519989014E-001;1.819828525185585E-003;-3.871504683047533E-003;
2.426000000000000E+009;1.488241553306580E-001;-1.254882812500000E-001;1.740289269946516E-003;-3.822923405095935E-003;
2.426166666666667E+009;1.491606980562210E-001;-1.257523596286774E-001;1.610881881788373E-003;-3.987623844295740E-003;
2.426333333333334E+009;1.491806358098984E-001;-1.260583996772766E-001;1.240645768120885E-003;-4.007204435765743E-003;
2.426500000000000E+009;1.493520438671112E-001;-1.260837018489838E-001;1.186626846902072E-003;-3.935224376618862E-003;
2.426666666666667E+009;1.494449973106384E-001;-1.260387301445007E-001;9.927822975441814E-004;-4.085022024810314E-003;
2.426833333333334E+009;1.491487175226212E-001;-1.261697560548782E-001;8.570685167796910E-004;-4.016076214611530E-003;
2.427000000000000E+009;1.489811539649963E-001;-1.262303888797760E-001;5.421417881734669E-004;-4.069327842444181E-003;
2.427166666666667E+009;1.486949920654297E-001;-1.260663419961929E-001;4.959795624017716E-004;-4.221198614686728E-003;
2.427333333333334E+009;1.482610255479813E-001;-1.260328888893127E-001;3.085221687797457E-004;-3.930466715246439E-003;
2.427500000000000E+009;1.477882415056229E-001;-1.259052306413651E-001;2.233358100056648E-004;-3.986675757914782E-003;
2.427666666666667E+009;1.471202969551086E-001;-1.258875578641892E-001;6.811808270867914E-005;-3.973052836954594E-003;
