# Version 1.00
#
freq[Hz];re:Trc1_S11;im:Trc1_S11;re:Trc2_S21;im:Trc2_S21;
2.400000000000000E+009;1.620615869760513E-001;5.309020355343819E-002;1.708698255242780E-004;-5.913586821407080E-003;
2.400166666666667E+009;1.620104908943176E-001;5.132412537932396E-002;-8.233334483520594E-006;-6.097206845879555E-003;
2.400333333333334E+009;1.619055867195129E-001;4.945537075400353E-002;-2.081088750855997E-004;-6.095536053180695E-003;
2.400500000000000E+009;1.616262942552567E-001;4.738423973321915E-002;-3.207245899830014E-004;-6.273748818784952E-003;
2.400666666666667E+009;1.615824550390244E-001;4.521223157644272E-002;-5.377878551371396E-004;-6.303630769252777E-003;
2.400833333333334E+009;1.616605073213577E-001;4.334750026464462E-002;-7.010322879068553E-004;-6.385967601090670E-003;
2.401000000000000E+009;1.616879999637604E-001;4.121048375964165E-002;-8.857633802108467E-004;-6.418577861040831E-003;
2.401166666666667E+009;1.618610620498657E-001;3.902764618396759E-002;-1.207360764965415E-003;-6.443644873797894E-003;
2.401333333333334E+009;1.619427204132080E-001;3.679711371660233E-002;-1.395347528159618E-003;-6.555892061442137E-003;
2.401500000000000E+009;1.623378247022629E-001;3.470934927463532E-002;-1.726919203065336E-003;-6.480806507170200E-003;
2.401666666666667E+009;1.625878363847733E-001;3.268501907587051E-002;-2.132229274138808E-003;-6.502334028482437E-003;
2.401833333333334E+009;1.629568785429001E-001;3.045476786792278E-002;-2.381635829806328E-003;-6.495831999927759E-003;
2.402000000000000E+009;1.630705147981644E-001;2.850040793418884E-002;-2.656286349520087E-003;-6.457207258790731E-003;
2.402166666666667E+009;1.635203510522842E-001;2.621396817266941E-002;-2.901068190112710E-003;-6.469191983342171E-003;
2.402333333333334E+009;1.640056222677231E-001;2.449715137481690E-002;-3.351031569764018E-003;-6.336938589811325E-003;
2.402500000000000E+009;1.647271513938904E-001;2.260408550500870E-002;-3.476809710264206E-003;-6.205338984727860E-003;
2.402666666666667E+009;1.653497815132141E-001;2.068601362407208E-002;-3.887450322508812E-003;-6.193105597048998E-003;
2.402833333333334E+009;1.660438477993012E-001;1.912015490233898E-002;-4.122204147279263E-003;-6.061690859496594E-003;
2.403000000000000E+009;1.667984277009964E-001;1.719147339463234E-002;-4.517227876931429E-003;-5.851026624441147E-003;
2.403166666666667E+009;1.674349009990692E-001;1.555553823709488E-002;-4.830054473131895E-003;-5.798468831926584E-003;
2.403333333333334E+009;1.683326214551926E-001;1.424236688762903E-002;-5.069946404546499E-003;-5.734329111874104E-003;
2.403500000000000E+009;1.688881367444992E-001;1.251821033656597E-002;-5.354961380362511E-003;-5.365873221307993E-003;
2.403666666666667E+009;1.698481440544128E-001;1.129298098385334E-002;-5.641615949571133E-003;-5.120915826410055E-003;
2.403833333333334E+009;1.707947105169296E-001;1.000496186316013E-002;-5.912108812481165E-003;-4.892330616712570E-003;
2.404000000000000E+009;1.717448681592941E-001;8.650913834571838E-003;-6.345496047288179E-003;-4.758701194077730E-003;
2.404166666666667E+009;1.726433038711548E-001;7.622650358825922E-003;-6.319289095699787E-003;-4.394757561385632E-003;
2.404333333333334E+009;1.734427660703659E-001;6.587706971913576E-003;-6.808722857385874E-003;-3.925976809114218E-003;
2.404500000000000E+009;1.741831451654434E-001;5.458420608192682E-003;-6.878625601530075E-003;-3.675238927826285E-003;
2.404666666666667E+009;1.750296801328659E-001;4.865039605647326E-003;-7.187340874224901E-003;-3.288220614194870E-003;
2.404833333333334E+009;1.757864505052567E-001;4.026476293802261E-003;-7.259486708790064E-003;-3.033349988982081E-003;
2.405000000000000E+009;1.765444278717041E-001;3.212747396901250E-003;-7.336101960390806E-003;-2.618719823658466E-003;
2.405166666666667E+009;1.772546768188477E-001;2.724226796999574E-003;-7.615950889885426E-003;-2.216255292296410E-003;
2.405333333333334E+009;1.781403720378876E-001;2.183876931667328E-003;-7.660506758838892E-003;-1.901317853480578E-003;
2.405500000000000E+009;1.786172389984131E-001;1.984903588891029E-003;-7.688624784350395E-003;-1.512709655798972E-003;
2.405666666666667E+009;1.792074441909790E-001;1.387963769957423E-003;-7.577345706522465E-003;-1.275261631235480E-003;
2.405833333333334E+009;1.795190125703812E-001;1.273257425054908E-003;-7.660322356969118E-003;-7.878553005866706E-004;
2.406000000000000E+009;1.800373643636704E-001;9.009881177917123E-004;-7.675518281757832E-003;-5.997717380523682E-004;
2.406166666666667E+009;1.803069561719894E-001;7.744221366010606E-004;-7.576664909720421E-003;-1.144807101809420E-004;
2.406333333333334E+009;1.807528287172318E-001;5.329656414687634E-004;-7.536109071224928E-003;2.747026155702770E-004;
2.406500000000000E+009;1.809124201536179E-001;2.342439111089334E-004;-7.559197489172220E-003;5.448809824883938E-004;
2.406666666666667E+009;1.808952391147614E-001;3.351493505761027E-004;-7.511584553867579E-003;9.827680187299848E-004;
2.406833333333334E+009;1.810796707868576E-001;6.965752982068807E-005;-7.269708905369043E-003;1.250761793926358E-003;
2.407000000000000E+009;1.810809671878815E-001;-1.302478194702417E-004;-7.242060266435146E-003;1.686753472313285E-003;
2.407166666666667E+009;1.810413151979446E-001;-2.804426476359367E-004;-7.187735289335251E-003;1.889404957182705E-003;
2.407333333333334E+009;1.807858794927597E-001;-6.846248288638890E-004;-6.887381430715323E-003;2.106159692630172E-003;
2.407500000000000E+009;1.805403530597687E-001;-8.855331689119339E-004;-6.828766316175461E-003;2.382557373493910E-003;
2.407666666666667E+009;1.803436726331711E-001;-1.157752936705947E-003;-6.591892335563898E-003;2.684382023289800E-003;
2.407833333333334E+009;1.795860379934311E-001;-1.589065301232040E-003;-6.580708082765341E-003;2.861944027245045E-003;
2.408000000000000E+009;1.793152838945389E-001;-2.149140927940607E-003;-6.200676783919334E-003;3.047019476071000E-003;
2.408166666666667E+009;1.786368936300278E-001;-2.502597402781248E-003;-6.110856309533119E-003;3.346159355714917E-003;
2.408333333333334E+009;1.783048361539841E-001;-3.148229559883475E-003;-5.770239047706127E-003;3.253668546676636E-003;
2.408500000000000E+009;1.774689704179764E-001;-3.764462191611528E-003;-5.667785182595253E-003;3.586787963286042E-003;
2.408666666666667E+009;1.767167299985886E-001;-4.732571542263031E-003;-5.596003029495478E-003;3.956323489546776E-003;
2.408833333333334E+009;1.759576052427292E-001;-5.483132321387529E-003;-5.245622713118792E-003;4.076058045029640E-003;
2.409000000000000E+009;1.751850992441177E-001;-6.469625048339367E-003;-5.008447915315628E-003;4.277937579900026E-003;
2.409166666666667E+009;1.743152290582657E-001;-7.418353576213121E-003;-4.891323391348124E-003;4.358536563813686E-003;
2.409333333333334E+009;1.737427562475205E-001;-8.683754131197929E-003;-4.527985118329525E-003;4.355783108621836E-003;
2.409500000000000E+009;1.727528423070908E-001;-1.005770824849606E-002;-4.246604163199663E-003;4.672283306717873E-003;
2.409666666666667E+009;1.717943996191025E-001;-1.113070081919432E-002;-4.096690099686384E-003;4.605771042406559E-003;
2.409833333333334E+009;1.710733324289322E-001;-1.263517700135708E-002;-4.061642102897167E-003;4.681206773966551E-003;
2.410000000000000E+009;1.704111993312836E-001;-1.404340192675591E-002;-3.780070459470153E-003;4.842517897486687E-003;
2.410166666666667E+009;1.695026308298111E-001;-1.563433371484280E-002;-3.554827068001032E-003;4.743149038404226E-003;
2.410333333333334E+009;1.688522994518280E-001;-1.727123558521271E-002;-3.323261858895421E-003;4.903859924525023E-003;
2.410500000000000E+009;1.682301759719849E-001;-1.891318894922733E-002;-3.359535941854119E-003;4.988667089492083E-003;
2.410666666666667E+009;1.674565225839615E-001;-2.091852203011513E-002;-3.089783713221550E-003;4.837114363908768E-003;
2.410833333333334E+009;1.670765131711960E-001;-2.277244813740253E-002;-3.035897854715586E-003;5.065144505351782E-003;
2.411000000000000E+009;1.663778126239777E-001;-2.453767880797386E-002;-2.874534577131271E-003;4.905708599835634E-003;
2.411166666666667E+009;1.660270690917969E-001;-2.665916830301285E-002;-2.737110946327448E-003;5.126554053276777E-003;
2.411333333333334E+009;1.658234894275665E-001;-2.853952907025814E-002;-2.651582472026348E-003;5.054190289229155E-003;
2.411500000000000E+009;1.652958542108536E-001;-3.065944276750088E-002;-2.463281853124499E-003;5.212808027863503E-003;
2.411666666666667E+009;1.651846319437027E-001;-3.237055614590645E-002;-2.301602391526103E-003;5.314331501722336E-003;
2.411833333333334E+009;1.650332808494568E-001;-3.439788892865181E-002;-2.109603490680456E-003;5.267562810331583E-003;
2.412000000000000E+009;1.650513708591461E-001;-3.669113665819168E-002;-1.953480066731572E-003;5.265545565634966E-003;
2.412166666666667E+009;1.648699194192886E-001;-3.864377364516258E-002;-1.875712187029421E-003;5.321321077644825E-003;
2.412333333333334E+009;1.654223948717117E-001;-4.064073413610458E-002;-1.953407190740109E-003;5.427071824669838E-003;
2.412500000000000E+009;1.653304547071457E-001;-4.275941476225853E-002;-1.580709940753877E-003;5.600425880402327E-003;
2.412666666666667E+009;1.656185239553452E-001;-4.471366852521896E-002;-1.383137656375766E-003;5.601090379059315E-003;
2.412833333333334E+009;1.659801304340363E-001;-4.666794463992119E-002;-1.204646308906376E-003;5.711445119231939E-003;
2.413000000000000E+009;1.662602275609970E-001;-4.854781925678253E-002;-9.959072340279818E-004;5.610457155853510E-003;
2.413166666666667E+009;1.665623337030411E-001;-5.052693933248520E-002;-7.859129109419882E-004;5.758180283010006E-003;
2.413333333333334E+009;1.670645922422409E-001;-5.223517864942551E-002;-7.265629246830940E-004;5.826470442116261E-003;
2.413500000000000E+009;1.676185876131058E-001;-5.404112488031387E-002;-3.500016464386135E-004;5.998272914439440E-003;
2.413666666666667E+009;1.682878285646439E-001;-5.567671358585358E-002;-1.082908493117429E-004;5.943378899246454E-003;
2.413833333333334E+009;1.686980724334717E-001;-5.709116905927658E-002;-7.195399666670710E-005;5.828686989843845E-003;
2.414000000000000E+009;1.689428836107254E-001;-5.871427804231644E-002;3.944353666156530E-004;6.003994960337877E-003;
2.414166666666667E+009;1.698615849018097E-001;-5.994792655110359E-002;3.992195415776223E-004;5.848994478583336E-003;
2.414333333333334E+009;1.703035682439804E-001;-6.127683818340302E-002;7.902916986495256E-004;5.888609681278467E-003;
2.414500000000000E+009;1.711617112159729E-001;-6.231587007641792E-002;9.028549538925290E-004;5.866220686584711E-003;
2.414666666666667E+009;1.715518683195114E-001;-6.355981528759003E-002;1.268916297703981E-003;5.715160164982081E-003;
2.414833333333334E+009;1.720402985811234E-001;-6.454367935657501E-002;1.463902881368995E-003;5.670039914548397E-003;
2.415000000000000E+009;1.725430935621262E-001;-6.538254767656326E-002;1.719638239592314E-003;5.624799989163876E-003;
2.415166666666667E+009;1.729623675346375E-001;-6.618533283472061E-002;1.972107915207744E-003;5.664329975843430E-003;
2.415333333333334E+009;1.734859496355057E-001;-6.694004684686661E-002;2.165383193641901E-003;5.421428009867668E-003;
2.415500000000000E+009;1.737830191850662E-001;-6.753662228584290E-002;2.368258545175195E-003;5.432009696960449E-003;
2.415666666666667E+009;1.741482019424439E-001;-6.789049506187439E-002;2.660147380083799E-003;5.453093443065882E-003;
2.415833333333334E+009;1.743498295545578E-001;-6.845238804817200E-002;2.788559999316931E-003;5.298081319779158E-003;
2.416000000000000E+009;1.744116842746735E-001;-6.885783374309540E-002;3.058015834540129E-003;4.998075775802136E-003;
2.416166666666667E+009;1.747322380542755E-001;-6.911120563745499E-002;3.169836476445198E-003;4.925725050270557E-003;
2.416333333333334E+009;1.746971458196640E-001;-6.936594843864441E-002;3.512958763167262E-003;4.767213482409716E-003;
2.416500000000000E+009;1.746224611997604E-001;-6.954470276832581E-002;3.525249660015106E-003;4.561659879982472E-003;
2.416666666666667E+009;1.744270771741867E-001;-6.956381350755692E-002;3.747913520783186E-003;4.179198760539293E-003;
2.416833333333334E+009;1.742291450500488E-001;-6.996898353099823E-002;3.879582509398460E-003;4.255923442542553E-003;
2.417000000000000E+009;1.736131608486176E-001;-7.012706249952316E-002;4.038820043206215E-003;3.989269491285086E-003;
2.417166666666667E+009;1.731847375631332E-001;-7.009482383728027E-002;4.025976639240980E-003;3.729930380359292E-003;
2.417333333333334E+009;1.727278083562851E-001;-7.012068480253220E-002;4.191884770989418E-003;3.691263031214476E-003;
2.417500000000000E+009;1.720217466354370E-001;-7.039047777652741E-002;4.273850005120039E-003;3.335095942020416E-003;
2.417666666666667E+009;1.714880466461182E-001;-7.034963369369507E-002;4.488468635827303E-003;3.260200843214989E-003;
2.417833333333334E+009;1.704243123531342E-001;-7.037086784839630E-002;4.490083083510399E-003;3.022503107786179E-003;
2.418000000000000E+009;1.694455593824387E-001;-7.068236917257309E-002;4.594139754772186E-003;2.834202023223043E-003;
2.418166666666667E+009;1.684635728597641E-001;-7.072551548480988E-002;4.586268216371536E-003;2.691930858418346E-003;
2.418333333333334E+009;1.676619648933411E-001;-7.114738970994949E-002;4.587462171912193E-003;2.362035447731614E-003;
2.418500000000000E+009;1.662753969430924E-001;-7.122945785522461E-002;4.658959340304136E-003;2.236311091110110E-003;
2.418666666666667E+009;1.652538776397705E-001;-7.171604037284851E-002;4.658618476241827E-003;2.056241035461426E-003;
2.418833333333334E+009;1.637988239526749E-001;-7.226212322711945E-002;4.724822007119656E-003;1.851820852607489E-003;
2.419000000000000E+009;1.624713540077210E-001;-7.245377451181412E-002;4.745210986584425E-003;1.689341850578785E-003;
2.419166666666667E+009;1.611777544021606E-001;-7.315315306186676E-002;4.698037169873714E-003;1.503063365817070E-003;
2.419333333333334E+009;1.598980426788330E-001;-7.354026287794113E-002;4.702913109213114E-003;1.387758180499077E-003;
2.419500000000000E+009;1.585322320461273E-001;-7.439109683036804E-002;4.708594176918268E-003;1.258443808183074E-003;
2.419666666666667E+009;1.572304219007492E-001;-7.535382360219955E-002;4.629366565495729E-003;1.145164831541479E-003;
2.419833333333334E+009;1.558493226766586E-001;-7.609250396490097E-002;4.749228712171316E-003;1.098783221095800E-003;
2.420000000000000E+009;1.545290201902390E-001;-7.706608623266220E-002;4.802415613085032E-003;7.717582629993558E-004;
2.420166666666667E+009;1.530531048774719E-001;-7.819079607725143E-002;4.932725336402655E-003;5.494149518199265E-004;
2.420333333333334E+009;1.520204395055771E-001;-7.933228462934494E-002;4.691211506724358E-003;5.225763889029622E-004;
2.420500000000000E+009;1.508842557668686E-001;-8.039080351591110E-002;4.717915784567595E-003;2.692693378776312E-004;
2.420666666666667E+009;1.496937721967697E-001;-8.175204694271088E-002;4.856082610785961E-003;2.337486221222207E-004;
2.420833333333334E+009;1.485779434442520E-001;-8.311820775270462E-002;4.860729444772005E-003;1.777946308720857E-004;
2.421000000000000E+009;1.474841684103012E-001;-8.458310365676880E-002;4.761984571814537E-003;-6.420211866497994E-005;
2.421166666666667E+009;1.465752720832825E-001;-8.608742803335190E-002;4.733952227979899E-003;-3.023591707460582E-004;
2.421333333333334E+009;1.458884179592133E-001;-8.784051984548569E-002;4.719052463769913E-003;-4.048926639370620E-004;
2.421500000000000E+009;1.446986794471741E-001;-8.946339786052704E-002;4.692239221185446E-003;-6.529349484480918E-004;
2.421666666666667E+009;1.442176103591919E-001;-9.119967371225357E-002;4.518236033618450E-003;-7.465435774065554E-004;
2.421833333333334E+009;1.435777544975281E-001;-9.285052865743637E-002;4.632557276636362E-003;-9.573831339366734E-004;
2.422000000000000E+009;1.430172026157379E-001;-9.460384398698807E-002;4.433932714164257E-003;-1.129004289396107E-003;
2.422166666666667E+009;1.427322924137116E-001;-9.658545255661011E-002;4.350556526333094E-003;-1.280638156458736E-003;
2.422333333333334E+009;1.422778815031052E-001;-9.821889549493790E-002;4.457540810108185E-003;-1.548144849948585E-003;
2.422500000000000E+009;1.420634835958481E-001;-9.998992830514908E-002;4.242459312081337E-003;-1.705973991192877E-003;
2.422666666666667E+009;1.418788284063339E-001;-1.018501892685890E-001;4.124922212213278E-003;-1.681936904788017E-003;
2.422833333333334E+009;1.417896151542664E-001;-1.035598441958427E-001;4.004471935331821E-003;-1.780329621396959E-003;
2.423000000000000E+009;1.418251097202301E-001;-1.053752750158310E-001;3.905066521838307E-003;-1.986294053494930E-003;
2.423166666666667E+009;1.421327590942383E-001;-1.070977002382278E-001;3.829579334706068E-003;-2.086261520162225E-003;
2.423333333333334E+009;1.422500312328339E-001;-1.086075007915497E-001;3.923430107533932E-003;-2.158595481887460E-003;
2.423500000000000E+009;1.425645649433136E-001;-1.103368774056435E-001;3.910522442311049E-003;-2.247367054224014E-003;
2.423666666666667E+009;1.426099091768265E-001;-1.119994819164276E-001;3.581019584089518E-003;-2.390924142673612E-003;
2.423833333333334E+009;1.433402448892593E-001;-1.135387420654297E-001;3.548497799783945E-003;-2.497109118849039E-003;
2.424000000000000E+009;1.435555815696716E-001;-1.148726418614388E-001;3.401036374270916E-003;-2.584700705483556E-003;
2.424166666666667E+009;1.440190374851227E-001;-1.162438616156578E-001;3.308089450001717E-003;-2.710495842620730E-003;
2.424333333333334E+009;1.444437950849533E-001;-1.175883859395981E-001;3.161291126161814E-003;-2.788621699437499E-003;
2.424500000000000E+009;1.450284570455551E-001;-1.187752932310104E-001;3.013051813468337E-003;-3.105103969573975E-003;
2.424666666666667E+009;1.457251608371735E-001;-1.197402700781822E-001;3.181089647114277E-003;-3.175185993313789E-003;
2.424833333333334E+009;1.460545212030411E-001;-1.208557114005089E-001;2.784737618640065E-003;-3.157740924507380E-003;
2.425000000000000E+009;1.466651409864426E-001;-1.217180192470551E-001;2.814969979226589E-003;-3.286392427980900E-003;
2.425166666666667E+009;1.468696743249893E-001;-1.226624324917793E-001;2.612172625958920E-003;-3.582434961572290E-003;
2.425333333333334E+009;1.474643200635910E-001;-1.232501119375229E-001;2.458429429680109E-003;-3.509270027279854E-003;
2.425500000000000E+009;1.480193734169006E-001;-1.240696161985397E-001;2.363298786804080E-003;-3.462754422798753E-003;
2.425666666666667E+009;1.481094956398010E-001;-1.245438009500504E-001;2.167166909202933E-003;-3.781422739848495E-003;
2.425833333333334E+009;1.485162973403931E-001;-1.251043528318405E-001;1.957364846020937E-003;-3.624153090640903E-003;
2.426000000000000E+009;1.487901359796524E-001;-1.255135685205460E-001;1.800568308681250E-003;-3.820294747129083E-003;
2.426166666666667E+009;1.492092758417130E-001;-1.258279085159302E-001;1.577867544256151E-003;-4.126013722270727E-003;
2.426333333333334E+009;1.491570025682449E-001;-1.259910613298416E-001;1.203175517730415E-003;-3.899041796103120E-003;
2.426500000000000E+009;1.492870301008225E-001;-1.261614561080933E-001;1.128742704167962E-003;-3.887502010911703E-003;
2.426666666666667E+009;1.493650227785111E-001;-1.261116415262222E-001;9.603308280929923E-004;-3.956778440624476E-003;
2.426833333333334E+009;1.490516364574432E-001;-1.261917203664780E-001;9.263946558348835E-004;-4.031439311802387E-003;
2.427000000000000E+009;1.487894207239151E-001;-1.261959373950958E-001;5.227176588959992E-004;-3.933394327759743E-003;
2.427166666666667E+009;1.485019475221634E-001;-1.261423230171204E-001;4.616931546479464E-004;-3.870871616527438E-003;
2.427333333333334E+009;1.479916125535965E-001;-1.260978430509567E-001;2.100271667586640E-004;-3.869684878736734E-003;
2.427500000000000E+009;1.476596593856812E-001;-1.259151250123978E-001;1.401551126036793E-004;-3.693837672472000E-003;
2.427666666666667E+009;1.468890160322189E-001;-1.258498430252075E-001;8.271203114418313E-005;-3.717205021530390E-003;
