# Version 1.00
#
freq[Hz];re:Trc1_S11;im:Trc1_S11;re:Trc2_S21;im:Trc2_S21;
2.400000000000000E+009;1.573181450366974E-001;1.114906817674637E-001;7.579941302537918E-003;5.399982328526676E-004;
2.400166666666667E+009;1.567464321851730E-001;1.093243137001991E-001;7.620647083967924E-003;2.299372863490135E-004;
2.400333333333334E+009;1.564368158578873E-001;1.071808189153671E-001;7.812181487679482E-003;-1.853875146480277E-004;
2.400500000000000E+009;1.560033261775971E-001;1.046013906598091E-001;7.668156642466784E-003;-6.800251430831850E-004;
2.400666666666667E+009;1.558793038129807E-001;1.022821292281151E-001;7.964765653014183E-003;-1.073889899998903E-003;
2.400833333333334E+009;1.552034616470337E-001;9.935068339109421E-002;7.971738465130329E-003;-1.549837994389236E-003;
2.401000000000000E+009;1.550592482089996E-001;9.672557562589645E-002;7.867260836064816E-003;-1.965020317584276E-003;
2.401166666666667E+009;1.548424065113068E-001;9.375816583633423E-002;7.694342173635960E-003;-2.487330930307508E-003;
2.401333333333334E+009;1.550249159336090E-001;9.080123901367188E-002;7.566326763480902E-003;-3.048674901947379E-003;
2.401500000000000E+009;1.550558209419251E-001;8.794416487216950E-002;7.237881422042847E-003;-3.542876802384853E-003;
2.401666666666667E+009;1.551016122102737E-001;8.479509502649307E-002;6.881270091980696E-003;-3.750535426661372E-003;
2.401833333333334E+009;1.551242619752884E-001;8.196718245744705E-002;6.700503639876843E-003;-4.185305442661047E-003;
2.402000000000000E+009;1.557499915361404E-001;7.903107255697250E-002;6.277043372392654E-003;-4.447476007044315E-003;
2.402166666666667E+009;1.561343520879746E-001;7.619281113147736E-002;6.025340408086777E-003;-4.601459950208664E-003;
2.402333333333334E+009;1.569073945283890E-001;7.303410023450851E-002;5.570468492805958E-003;-4.926127381622791E-003;
2.402500000000000E+009;1.577634662389755E-001;7.031039148569107E-002;5.113332532346249E-003;-5.156121682375670E-003;
2.402666666666667E+009;1.587419360876083E-001;6.781949102878571E-002;4.698464181274176E-003;-5.132853984832764E-003;
2.402833333333334E+009;1.598163396120071E-001;6.483606994152069E-002;4.556794185191393E-003;-5.322971381247044E-003;
2.403000000000000E+009;1.609999686479569E-001;6.201706081628799E-002;4.031575750559568E-003;-5.367133300751448E-003;
2.403166666666667E+009;1.626037806272507E-001;5.951648205518723E-002;3.367726691067219E-003;-5.291022825986147E-003;
2.403333333333334E+009;1.638183891773224E-001;5.705102533102036E-002;3.187841502949596E-003;-5.282513797283173E-003;
2.403500000000000E+009;1.655617058277130E-001;5.474528297781944E-002;2.794354688376188E-003;-5.187710281461477E-003;
2.403666666666667E+009;1.673414558172226E-001;5.235075950622559E-002;2.649572445079684E-003;-5.043875891715288E-003;
2.403833333333334E+009;1.689790934324265E-001;5.021819099783897E-002;2.440700307488442E-003;-5.037198774516583E-003;
2.404000000000000E+009;1.705421954393387E-001;4.794431105256081E-002;2.164040924981237E-003;-4.803458694368601E-003;
2.404166666666667E+009;1.724312752485275E-001;4.619138315320015E-002;2.146141137927771E-003;-4.618807695806027E-003;
2.404333333333334E+009;1.741859018802643E-001;4.432376474142075E-002;1.838327152654529E-003;-4.386102780699730E-003;
2.404500000000000E+009;1.759085506200790E-001;4.279160872101784E-002;1.853441819548607E-003;-4.319555591791868E-003;
2.404666666666667E+009;1.779220104217529E-001;4.136197641491890E-002;1.728866714984179E-003;-4.312404431402683E-003;
2.404833333333334E+009;1.798714399337769E-001;4.007334262132645E-002;1.711578224785626E-003;-4.334379453212023E-003;
2.405000000000000E+009;1.813612729310989E-001;3.913845866918564E-002;1.682165660895407E-003;-4.256712272763252E-003;
2.405166666666667E+009;1.831223219633102E-001;3.820351511240006E-002;1.619503134861589E-003;-4.022350534796715E-003;
2.405333333333334E+009;1.848582923412323E-001;3.749936446547508E-002;1.490922877565026E-003;-4.254470113664866E-003;
2.405500000000000E+009;1.865960359573364E-001;3.687238320708275E-002;1.494225580245256E-003;-4.283057525753975E-003;
2.405666666666667E+009;1.881712973117828E-001;3.641939535737038E-002;1.315906294621527E-003;-3.972744569182396E-003;
2.405833333333334E+009;1.898621022701263E-001;3.612124919891357E-002;1.182516571134329E-003;-3.936392720788717E-003;
2.406000000000000E+009;1.910947114229202E-001;3.579959273338318E-002;1.014031469821930E-003;-4.077055957168341E-003;
2.406166666666667E+009;1.925703287124634E-001;3.573156520724297E-002;1.155269914306700E-003;-4.073021002113819E-003;
2.406333333333334E+009;1.938274949789047E-001;3.584892302751541E-002;1.016308204270899E-003;-3.995325881987810E-003;
2.406500000000000E+009;1.950767487287521E-001;3.598446398973465E-002;8.237339206971228E-004;-3.755287965759635E-003;
2.406666666666667E+009;1.960774362087250E-001;3.602648153901100E-002;9.072862449102104E-004;-3.730323631316423E-003;
2.406833333333334E+009;1.969861984252930E-001;3.618149831891060E-002;8.200576412491500E-004;-3.643684787675738E-003;
2.407000000000000E+009;1.976398080587387E-001;3.655112162232399E-002;8.622307796031237E-004;-3.580898046493530E-003;
2.407166666666667E+009;1.983869522809982E-001;3.645389154553413E-002;7.004780345596373E-004;-3.521138569340110E-003;
2.407333333333334E+009;1.987401545047760E-001;3.692304715514183E-002;8.781795040704310E-004;-3.489981638267636E-003;
2.407500000000000E+009;1.988754421472549E-001;3.735823184251785E-002;7.957174675539136E-004;-3.707042662426829E-003;
2.407666666666667E+009;1.992836594581604E-001;3.756022080779076E-002;9.711753809824586E-004;-3.532849019393325E-003;
2.407833333333334E+009;1.990621238946915E-001;3.774079307913780E-002;7.367846556007862E-004;-3.433321369811893E-003;
2.408000000000000E+009;1.993051767349243E-001;3.793019056320190E-002;1.042398856952786E-003;-3.512360854074359E-003;
2.408166666666667E+009;1.987676173448563E-001;3.801970183849335E-002;1.177031081169844E-003;-3.603376913815737E-003;
2.408333333333334E+009;1.985984593629837E-001;3.790086135268211E-002;1.185565954074264E-003;-3.731426782906056E-003;
2.408500000000000E+009;1.978764235973358E-001;3.793350607156754E-002;1.093646860681474E-003;-3.668000688776374E-003;
2.408666666666667E+009;1.975889205932617E-001;3.776367008686066E-002;1.236366457305849E-003;-3.752416232600808E-003;
2.408833333333334E+009;1.969168931245804E-001;3.744505345821381E-002;1.213795738294721E-003;-4.022200591862202E-003;
2.409000000000000E+009;1.959885954856873E-001;3.682262077927589E-002;1.162739587016404E-003;-4.064080305397511E-003;
2.409166666666667E+009;1.949416995048523E-001;3.634507209062576E-002;1.135277794674039E-003;-4.349118564277887E-003;
2.409333333333334E+009;1.940114647150040E-001;3.578270971775055E-002;1.042338903062046E-003;-4.647648893296719E-003;
2.409500000000000E+009;1.928269565105438E-001;3.476651757955551E-002;9.494279511272907E-004;-4.745270125567913E-003;
2.409666666666667E+009;1.915261298418045E-001;3.382856398820877E-002;1.014607609249651E-003;-4.775110632181168E-003;
2.409833333333334E+009;1.903271675109863E-001;3.265073522925377E-002;1.000583055429161E-003;-5.024242680519819E-003;
2.410000000000000E+009;1.890994757413864E-001;3.140036389231682E-002;8.075185469351709E-004;-5.240857135504484E-003;
2.410166666666667E+009;1.879243552684784E-001;2.992228604853153E-002;6.984915817156434E-004;-5.319461226463318E-003;
2.410333333333334E+009;1.867118924856186E-001;2.857531234622002E-002;8.331672870554030E-004;-5.626749247312546E-003;
2.410500000000000E+009;1.854798346757889E-001;2.682634443044663E-002;3.719387459568679E-004;-5.737266503274441E-003;
2.410666666666667E+009;1.842772364616394E-001;2.484590001404285E-002;4.020580381620675E-004;-5.719029344618321E-003;
2.410833333333334E+009;1.833058744668961E-001;2.263555116951466E-002;1.723174136714079E-005;-5.716025829315186E-003;
2.411000000000000E+009;1.822560280561447E-001;2.037723734974861E-002;-3.592992434278131E-004;-6.120668258517981E-003;
2.411166666666667E+009;1.813741028308868E-001;1.857019402086735E-002;-4.592955519910902E-004;-6.366485729813576E-003;
2.411333333333334E+009;1.803613901138306E-001;1.594671607017517E-002;-8.842743118293583E-004;-6.291853263974190E-003;
2.411500000000000E+009;1.797429621219635E-001;1.367577817291021E-002;-8.900706889107823E-004;-6.418463774025440E-003;
2.411666666666667E+009;1.792098581790924E-001;1.121951919049025E-002;-1.409624936059117E-003;-6.594302598387003E-003;
2.411833333333334E+009;1.784378290176392E-001;8.868939243257046E-003;-1.646690652705729E-003;-6.623833440244198E-003;
2.412000000000000E+009;1.785052120685577E-001;6.026801653206348E-003;-2.017637947574258E-003;-6.590038072317839E-003;
2.412166666666667E+009;1.782201230525971E-001;3.642031690105796E-003;-2.379857236519456E-003;-6.600694730877876E-003;
2.412333333333334E+009;1.779451221227646E-001;8.930756011977792E-004;-2.717790659517050E-003;-6.494011729955673E-003;
2.412500000000000E+009;1.784308850765228E-001;-1.779738580808044E-003;-3.106531919911504E-003;-6.495115812867880E-003;
2.412666666666667E+009;1.783083528280258E-001;-4.510147031396627E-003;-3.402785398066044E-003;-6.230443250387907E-003;
2.412833333333334E+009;1.788064092397690E-001;-7.043235935270786E-003;-3.812195733189583E-003;-6.153339054435492E-003;
2.413000000000000E+009;1.793015450239182E-001;-9.602117352187634E-003;-4.193736240267754E-003;-6.253999192267656E-003;
2.413166666666667E+009;1.799513697624207E-001;-1.206320710480213E-002;-4.442339763045311E-003;-5.845127161592245E-003;
2.413333333333334E+009;1.808433383703232E-001;-1.477894373238087E-002;-4.766994621604681E-003;-5.561441648751497E-003;
2.413500000000000E+009;1.816808879375458E-001;-1.736794784665108E-002;-4.980730358511210E-003;-5.496679339557886E-003;
2.413666666666667E+009;1.827054023742676E-001;-1.975239813327789E-002;-5.354039836674929E-003;-5.151462275534868E-003;
2.413833333333334E+009;1.838326603174210E-001;-2.210827916860580E-002;-5.745142232626677E-003;-4.832316655665636E-003;
2.414000000000000E+009;1.847290396690369E-001;-2.449728734791279E-002;-5.913875065743923E-003;-4.376941360533238E-003;
2.414166666666667E+009;1.861266344785690E-001;-2.666137553751469E-002;-5.915405228734016E-003;-4.310070537030697E-003;
2.414333333333334E+009;1.872994899749756E-001;-2.898049540817738E-002;-6.202801130712032E-003;-3.793715266510844E-003;
2.414500000000000E+009;1.885618418455124E-001;-3.080355562269688E-002;-6.190051324665546E-003;-3.618698101490736E-003;
2.414666666666667E+009;1.899221390485764E-001;-3.251096233725548E-002;-6.351583637297154E-003;-3.301762044429779E-003;
2.414833333333334E+009;1.912504583597183E-001;-3.422706574201584E-002;-6.357172038406134E-003;-2.942887134850025E-003;
2.415000000000000E+009;1.924173086881638E-001;-3.593504056334496E-002;-6.477880291640759E-003;-2.640087157487869E-003;
2.415166666666667E+009;1.937787830829620E-001;-3.716475889086723E-002;-6.616209633648396E-003;-2.366977510973811E-003;
2.415333333333334E+009;1.953011006116867E-001;-3.838315606117249E-002;-6.627403199672699E-003;-2.256476320326328E-003;
2.415500000000000E+009;1.965743899345398E-001;-3.940724208950996E-002;-6.563666276633740E-003;-1.824044622480869E-003;
2.415666666666667E+009;1.979144811630249E-001;-4.045895487070084E-002;-6.782023236155510E-003;-1.591181498952210E-003;
2.415833333333334E+009;1.989861279726028E-001;-4.111802205443382E-002;-6.875822786241770E-003;-1.260522636584938E-003;
2.416000000000000E+009;2.002051621675491E-001;-4.192065075039864E-002;-6.945073604583740E-003;-9.369060280732811E-004;
2.416166666666667E+009;2.012358903884888E-001;-4.250248521566391E-002;-6.972388830035925E-003;-6.140366313047707E-004;
2.416333333333334E+009;2.021894752979279E-001;-4.280095174908638E-002;-6.948346272110939E-003;-2.803479437716305E-004;
2.416500000000000E+009;2.029616087675095E-001;-4.315760731697083E-002;-6.774717941880226E-003;1.983542169909924E-004;
2.416666666666667E+009;2.036751210689545E-001;-4.352786019444466E-002;-6.862112786620855E-003;4.962439998053014E-004;
2.416833333333334E+009;2.042263001203537E-001;-4.355891048908234E-002;-6.580383516848087E-003;7.952966261655092E-004;
2.417000000000000E+009;2.046713829040527E-001;-4.358088225126267E-002;-6.398958154022694E-003;1.108973636291921E-003;
2.417166666666667E+009;2.047047466039658E-001;-4.347123950719833E-002;-6.170812994241715E-003;1.494908705353737E-003;
2.417333333333334E+009;2.049051225185394E-001;-4.312507435679436E-002;-6.119635887444019E-003;1.667911186814308E-003;
2.417500000000000E+009;2.048266083002091E-001;-4.305674508213997E-002;-5.735301878303289E-003;1.896241446956992E-003;
2.417666666666667E+009;2.046746313571930E-001;-4.264340549707413E-002;-5.703080445528030E-003;2.041385043412447E-003;
2.417833333333334E+009;2.045273482799530E-001;-4.229978099465370E-002;-5.289027467370033E-003;2.224207157269120E-003;
2.418000000000000E+009;2.041557729244232E-001;-4.183948785066605E-002;-5.116677843034267E-003;2.337895566597581E-003;
2.418166666666667E+009;2.036318033933640E-001;-4.162969067692757E-002;-4.893681965768337E-003;2.287715906277299E-003;
2.418333333333334E+009;2.030527442693710E-001;-4.127218574285507E-002;-4.703603684902191E-003;2.440229058265686E-003;
2.418500000000000E+009;2.021212130784988E-001;-4.092211648821831E-002;-4.565624985843897E-003;2.410678425803781E-003;
2.418666666666667E+009;2.013563364744186E-001;-4.060638695955277E-002;-4.480354022234678E-003;2.538667060434818E-003;
2.418833333333334E+009;2.001844346523285E-001;-4.049379006028175E-002;-4.107597749680281E-003;2.434867899864912E-003;
2.419000000000000E+009;1.991681307554245E-001;-4.035265743732452E-002;-4.140196368098259E-003;2.495635999366641E-003;
2.419166666666667E+009;1.979423165321350E-001;-4.035324603319168E-002;-3.997490275651217E-003;2.599791157990694E-003;
2.419333333333334E+009;1.965125501155853E-001;-4.047190770506859E-002;-4.042987711727619E-003;2.456822898238897E-003;
2.419500000000000E+009;1.950391680002213E-001;-4.066455736756325E-002;-3.947100136429071E-003;2.630936447530985E-003;
2.419666666666667E+009;1.933487802743912E-001;-4.119152948260307E-002;-3.844196908175945E-003;2.562956651672721E-003;
2.419833333333334E+009;1.916778534650803E-001;-4.139326512813568E-002;-3.774236189201474E-003;2.635036827996373E-003;
2.420000000000000E+009;1.899952143430710E-001;-4.212513193488121E-002;-3.816913114860654E-003;2.811057725921273E-003;
2.420166666666667E+009;1.882615983486176E-001;-4.261818155646324E-002;-3.788746427744627E-003;2.917381236329675E-003;
2.420333333333334E+009;1.864951997995377E-001;-4.358477517962456E-002;-3.821514314040542E-003;2.919428283348680E-003;
2.420500000000000E+009;1.846272796392441E-001;-4.471141099929810E-002;-3.521761856973171E-003;3.000603988766670E-003;
2.420666666666667E+009;1.827513128519058E-001;-4.567217081785202E-002;-3.539864206686616E-003;3.200292121618986E-003;
2.420833333333334E+009;1.808065623044968E-001;-4.703593999147415E-002;-3.376971464604139E-003;3.365846816450357E-003;
2.421000000000000E+009;1.792230606079102E-001;-4.842986911535263E-002;-3.105214796960354E-003;3.432094119489193E-003;
2.421166666666667E+009;1.774102598428726E-001;-4.993724822998047E-002;-3.140802728012204E-003;3.491076175123453E-003;
2.421333333333334E+009;1.756591647863388E-001;-5.131160467863083E-002;-2.815937856212258E-003;3.745781723409891E-003;
2.421500000000000E+009;1.738763153553009E-001;-5.320312455296516E-002;-2.600831678137183E-003;3.616783767938614E-003;
2.421666666666667E+009;1.724442094564438E-001;-5.509169399738312E-002;-2.455153968185186E-003;3.619236638769507E-003;
2.421833333333334E+009;1.710214614868164E-001;-5.692094936966896E-002;-2.258852822706103E-003;3.499491373077035E-003;
2.422000000000000E+009;1.694359183311462E-001;-5.896882340312004E-002;-2.193691907450557E-003;3.454273566603661E-003;
2.422166666666667E+009;1.683464348316193E-001;-6.112639978528023E-002;-1.942509319633246E-003;3.336153691634536E-003;
2.422333333333334E+009;1.670733243227005E-001;-6.325610727071762E-002;-1.833439106121659E-003;3.313986817374826E-003;
2.422500000000000E+009;1.660632342100143E-001;-6.530863791704178E-002;-1.758970902301371E-003;3.059523878619075E-003;
2.422666666666667E+009;1.650170534849167E-001;-6.762630492448807E-002;-1.794044743292034E-003;3.024577163159847E-003;
2.422833333333334E+009;1.642079949378967E-001;-6.987056881189346E-002;-1.687978627160192E-003;2.869999734684825E-003;
2.423000000000000E+009;1.635660827159882E-001;-7.199191302061081E-002;-1.673540566116571E-003;2.811197191476822E-003;
2.423166666666667E+009;1.630474328994751E-001;-7.426978647708893E-002;-1.678483677096665E-003;2.685561310499907E-003;
2.423333333333334E+009;1.628116965293884E-001;-7.658643275499344E-002;-1.900644623674452E-003;2.711409004405141E-003;
2.423500000000000E+009;1.623632907867432E-001;-7.872913032770157E-002;-1.833574729971588E-003;2.509137848392129E-003;
2.423666666666667E+009;1.623173952102661E-001;-8.088625967502594E-002;-1.857092138379812E-003;2.572969067841768E-003;
2.423833333333334E+009;1.619731038808823E-001;-8.297493308782578E-002;-2.161015989258885E-003;2.725812839344144E-003;
2.424000000000000E+009;1.621894538402557E-001;-8.518357574939728E-002;-2.116682473570108E-003;2.652647206559777E-003;
2.424166666666667E+009;1.622498780488968E-001;-8.711106330156326E-002;-1.993030076846480E-003;2.711406443268061E-003;
2.424333333333334E+009;1.624621301889420E-001;-8.889773488044739E-002;-2.229133155196905E-003;2.802254864946008E-003;
2.424500000000000E+009;1.629307121038437E-001;-9.115860611200333E-002;-2.224948955699801E-003;2.976930700242519E-003;
2.424666666666667E+009;1.631834954023361E-001;-9.265812486410141E-002;-2.273097634315491E-003;2.952400129288435E-003;
2.424833333333334E+009;1.637695878744125E-001;-9.432782977819443E-002;-2.181327203288674E-003;3.111243946477771E-003;
2.425000000000000E+009;1.642960608005524E-001;-9.578587114810944E-002;-2.270862692967057E-003;3.273637499660254E-003;
2.425166666666667E+009;1.647105813026428E-001;-9.722964465618134E-002;-2.219629241153598E-003;3.290633903816342E-003;
2.425333333333334E+009;1.650907844305039E-001;-9.859666973352432E-002;-2.299384446814656E-003;3.576128976419568E-003;
2.425500000000000E+009;1.660121381282806E-001;-9.983430057764053E-002;-2.197047695517540E-003;3.552746726199985E-003;
2.425666666666667E+009;1.665896922349930E-001;-1.007957011461258E-001;-2.263249829411507E-003;3.835843876004219E-003;
2.425833333333334E+009;1.671046018600464E-001;-1.018622145056725E-001;-2.089425455778837E-003;3.971616271883249E-003;
2.426000000000000E+009;1.677955985069275E-001;-1.024577319622040E-001;-1.988092204555869E-003;4.053029231727123E-003;
2.426166666666667E+009;1.685177236795425E-001;-1.032412648200989E-001;-1.827057451009750E-003;4.329855553805828E-003;
2.426333333333334E+009;1.688925772905350E-001;-1.039010435342789E-001;-1.796172000467777E-003;4.313891753554344E-003;
2.426500000000000E+009;1.696859300136566E-001;-1.042928397655487E-001;-1.569833839312196E-003;4.630580078810453E-003;
2.426666666666667E+009;1.702821701765060E-001;-1.047273203730583E-001;-1.442749286070466E-003;4.820327274501324E-003;
2.426833333333334E+009;1.708829402923584E-001;-1.051177829504013E-001;-1.122849411331117E-003;4.819887224584818E-003;
2.427000000000000E+009;1.711450964212418E-001;-1.053924784064293E-001;-1.174306496977806E-003;4.778044298291206E-003;
2.427166666666667E+009;1.715237200260162E-001;-1.053946465253830E-001;-9.163368958979845E-004;4.869799129664898E-003;
2.427333333333334E+009;1.717529147863388E-001;-1.057655438780785E-001;-7.006925297901034E-004;5.178365390747786E-003;
2.427500000000000E+009;1.718519330024719E-001;-1.057682782411575E-001;-3.955195425078273E-004;5.102142225950956E-003;
2.427666666666667E+009;1.718335300683975E-001;-1.057732477784157E-001;-3.436151018831879E-004;5.149853881448507E-003;
