# Version 1.00
#
freq[Hz];re:Trc1_S11;im:Trc1_S11;re:Trc2_S21;im:Trc2_S21;
2.400000000000000E+009;1.578001976013184E-001;1.115970313549042E-001;7.304297760128975E-003;4.170347237959504E-004;
2.400166666666667E+009;1.570349782705307E-001;1.097298935055733E-001;7.527601439505816E-003;1.866794045781717E-004;
2.400333333333334E+009;1.567983627319336E-001;1.074678152799606E-001;7.608326617628336E-003;-2.407887805020437E-004;
2.400500000000000E+009;1.562657952308655E-001;1.049278378486633E-001;7.750566583126783E-003;-5.628309445455670E-004;
2.400666666666667E+009;1.560745537281036E-001;1.025617718696594E-001;7.773608900606632E-003;-9.321087272837758E-004;
2.400833333333334E+009;1.556983739137650E-001;9.971655160188675E-002;7.910127751529217E-003;-1.472329720854759E-003;
2.401000000000000E+009;1.555421501398087E-001;9.695861488580704E-002;7.758629042655230E-003;-2.018538769334555E-003;
2.401166666666667E+009;1.552617549896240E-001;9.406745433807373E-002;7.651509251445532E-003;-2.332506701350212E-003;
2.401333333333334E+009;1.554901152849197E-001;9.131740033626556E-002;7.531971205025911E-003;-2.775794127956033E-003;
2.401500000000000E+009;1.554057300090790E-001;8.814711868762970E-002;7.237890269607306E-003;-3.197658341377974E-003;
2.401666666666667E+009;1.553838849067688E-001;8.529891073703766E-002;6.915850564837456E-003;-3.571210429072380E-003;
2.401833333333334E+009;1.557157933712006E-001;8.221992105245590E-002;6.568809039890766E-003;-4.075894597917795E-003;
2.402000000000000E+009;1.561580598354340E-001;7.912436127662659E-002;6.283247377723455E-003;-4.347767680883408E-003;
2.402166666666667E+009;1.567208468914032E-001;7.645495980978012E-002;5.874874070286751E-003;-4.526102449744940E-003;
2.402333333333334E+009;1.573179811239243E-001;7.340516895055771E-002;5.534630734473467E-003;-4.660075530409813E-003;
2.402500000000000E+009;1.583941727876663E-001;7.058748602867127E-002;5.116697866469622E-003;-4.865913651883602E-003;
2.402666666666667E+009;1.592298597097397E-001;6.786945462226868E-002;4.775991197675467E-003;-5.114565137773752E-003;
2.402833333333334E+009;1.602682173252106E-001;6.494404375553131E-002;4.311207681894302E-003;-5.151334218680859E-003;
2.403000000000000E+009;1.616946011781693E-001;6.232321262359619E-002;3.944072406738997E-003;-5.144734866917133E-003;
2.403166666666667E+009;1.634993404150009E-001;5.943980440497398E-002;3.390640951693058E-003;-5.294502247124910E-003;
2.403333333333334E+009;1.645548194646835E-001;5.697973445057869E-002;3.145565511658788E-003;-5.166454240679741E-003;
2.403500000000000E+009;1.663803607225418E-001;5.486926436424255E-002;2.837091684341431E-003;-4.926633089780808E-003;
2.403666666666667E+009;1.678215712308884E-001;5.247788503766060E-002;2.655883552506566E-003;-4.758393391966820E-003;
2.403833333333334E+009;1.699117422103882E-001;5.032435059547424E-002;1.585047692060471E-003;-5.127842538058758E-003;
2.404000000000000E+009;1.708573997020721E-001;4.836732894182205E-002;1.618727925233543E-003;-5.257882643491030E-003;
2.404166666666667E+009;1.731167733669281E-001;4.587605968117714E-002;1.620435738004744E-003;-3.929610364139080E-003;
2.404333333333334E+009;1.746879070997238E-001;4.412864148616791E-002;1.878736540675163E-003;-4.567848518490791E-003;
2.404500000000000E+009;1.767938435077667E-001;4.303263127803803E-002;7.669632905162871E-004;-4.135616123676300E-003;
2.404666666666667E+009;1.785000711679459E-001;4.102903977036476E-002;1.619449001736939E-003;-4.055387340486050E-003;
2.404833333333334E+009;1.806343197822571E-001;3.969168290495873E-002;1.616084831766784E-003;-3.345121629536152E-003;
2.405000000000000E+009;1.819270402193070E-001;3.815593570470810E-002;2.904767170548439E-003;-3.516163909807801E-003;
2.405166666666667E+009;1.839917749166489E-001;3.767226636409760E-002;1.732825883664191E-003;-3.142933361232281E-003;
2.405333333333334E+009;1.852654963731766E-001;3.740049526095390E-002;1.421796274371445E-003;-4.652516916394234E-003;
2.405500000000000E+009;1.872342079877853E-001;3.659822046756744E-002;1.528960652649403E-003;-4.056252539157867E-003;
2.405666666666667E+009;1.887539476156235E-001;3.604797273874283E-002;1.626711571589112E-003;-3.852694295346737E-003;
2.405833333333334E+009;1.903622746467590E-001;3.585463762283325E-002;1.308935694396496E-003;-4.009651020169258E-003;
2.406000000000000E+009;1.917457729578018E-001;3.545061498880386E-002;1.191807095892727E-003;-3.832873189821839E-003;
2.406166666666667E+009;1.931723207235336E-001;3.530563414096832E-002;1.086102682165802E-003;-4.011201206594706E-003;
2.406333333333334E+009;1.944190561771393E-001;3.534051030874252E-002;9.704428957775235E-004;-3.966797143220902E-003;
2.406500000000000E+009;1.953769475221634E-001;3.538081794977188E-002;9.865472093224526E-004;-3.805502783507109E-003;
2.406666666666667E+009;1.966369599103928E-001;3.542348369956017E-002;9.155625011771917E-004;-3.790464717894793E-003;
2.406833333333334E+009;1.974013149738312E-001;3.562726452946663E-002;7.432922138832510E-004;-3.559639910236001E-003;
2.407000000000000E+009;1.980496197938919E-001;3.611054643988609E-002;9.343676501885057E-004;-3.636579029262066E-003;
2.407166666666667E+009;1.987948417663574E-001;3.598745539784432E-002;8.631349774077535E-004;-3.609444946050644E-003;
2.407333333333334E+009;1.990385800600052E-001;3.637037053704262E-002;8.278348250314593E-004;-3.368254750967026E-003;
2.407500000000000E+009;1.993912607431412E-001;3.677770122885704E-002;9.159613982774317E-004;-3.473959164693952E-003;
2.407666666666667E+009;1.996062695980072E-001;3.705092519521713E-002;9.858952835202217E-004;-3.520387690514326E-003;
2.407833333333334E+009;1.993527263402939E-001;3.721968457102776E-002;9.176837047562003E-004;-3.634027903899550E-003;
2.408000000000000E+009;1.995608657598496E-001;3.735921159386635E-002;1.045398530550301E-003;-3.651231992989779E-003;
2.408166666666667E+009;1.992011368274689E-001;3.755034133791924E-002;1.231671543791890E-003;-3.703380236402154E-003;
2.408333333333334E+009;1.988481283187866E-001;3.736060485243797E-002;1.115012099035084E-003;-3.699548775330186E-003;
2.408500000000000E+009;1.983229517936707E-001;3.745229169726372E-002;1.248633256182075E-003;-3.746243659406900E-003;
2.408666666666667E+009;1.976190358400345E-001;3.728494048118591E-002;1.233428018167615E-003;-3.970110323280096E-003;
2.408833333333334E+009;1.970402151346207E-001;3.691575303673744E-002;1.244606566615403E-003;-3.916622139513493E-003;
2.409000000000000E+009;1.960266083478928E-001;3.645764663815498E-002;1.257905736565590E-003;-4.182572476565838E-003;
2.409166666666667E+009;1.950109004974365E-001;3.584310784935951E-002;1.286538317799568E-003;-4.233008250594139E-003;
2.409333333333334E+009;1.940051615238190E-001;3.530811145901680E-002;1.189435133710504E-003;-4.464568104594946E-003;
2.409500000000000E+009;1.927517503499985E-001;3.437731787562370E-002;1.117402454838157E-003;-4.696892574429512E-003;
2.409666666666667E+009;1.917041987180710E-001;3.319637849926949E-002;9.908176725730300E-004;-4.743788857012987E-003;
2.409833333333334E+009;1.903973966836929E-001;3.221438080072403E-002;1.001882832497358E-003;-4.966035485267639E-003;
2.410000000000000E+009;1.893634051084518E-001;3.099773637950420E-002;8.510685293003917E-004;-5.065418779850006E-003;
2.410166666666667E+009;1.880208998918533E-001;2.957644313573837E-002;7.527540437877178E-004;-5.109637044370174E-003;
2.410333333333334E+009;1.868653595447540E-001;2.796792238950729E-002;7.371599785983563E-004;-5.508636590093374E-003;
2.410500000000000E+009;1.856220364570618E-001;2.628233656287193E-002;5.418949876911938E-004;-5.582212470471859E-003;
2.410666666666667E+009;1.844142675399780E-001;2.419559471309185E-002;3.125775838270783E-004;-5.817572586238384E-003;
2.410833333333334E+009;1.833084225654602E-001;2.224435284733772E-002;1.317674323217943E-004;-5.922028794884682E-003;
2.411000000000000E+009;1.821509599685669E-001;2.029198408126831E-002;-1.571232860442251E-004;-6.204647012054920E-003;
2.411166666666667E+009;1.813027262687683E-001;1.800447702407837E-002;-3.990595869254321E-004;-6.373775191605091E-003;
2.411333333333334E+009;1.803653240203857E-001;1.546003669500351E-002;-7.334848050959408E-004;-6.442302837967873E-003;
2.411500000000000E+009;1.795188039541245E-001;1.338512450456619E-002;-9.245147230103612E-004;-6.479014642536640E-003;
2.411666666666667E+009;1.791387647390366E-001;1.075758971273899E-002;-1.399512169882655E-003;-6.545741576701403E-003;
2.411833333333334E+009;1.784325242042542E-001;8.560361340641975E-003;-1.725824084132910E-003;-6.570114288479090E-003;
2.412000000000000E+009;1.782198101282120E-001;5.596659146249294E-003;-1.872858614660800E-003;-6.571630481630564E-003;
2.412166666666667E+009;1.778810173273087E-001;3.359565045684576E-003;-2.343886764720082E-003;-6.672393996268511E-003;
2.412333333333334E+009;1.776754558086395E-001;5.760897183790803E-004;-2.763279713690281E-003;-6.459403317421675E-003;
2.412500000000000E+009;1.779227703809738E-001;-2.017618855461478E-003;-3.028232371434569E-003;-6.509202998131514E-003;
2.412666666666667E+009;1.782211363315582E-001;-4.657420329749584E-003;-3.525359788909555E-003;-6.548736710101366E-003;
2.412833333333334E+009;1.784883588552475E-001;-7.281302474439144E-003;-3.740046173334122E-003;-6.294925231486559E-003;
2.413000000000000E+009;1.792714297771454E-001;-9.773057885468006E-003;-3.973853308707476E-003;-6.188881583511829E-003;
2.413166666666667E+009;1.797857284545898E-001;-1.261594984680414E-002;-4.399344325065613E-003;-5.784217268228531E-003;
2.413333333333334E+009;1.806598752737045E-001;-1.509652193635702E-002;-4.891213495284319E-003;-5.572589579969645E-003;
2.413500000000000E+009;1.813504546880722E-001;-1.760638132691383E-002;-5.020346026867628E-003;-5.392098799347878E-003;
2.413666666666667E+009;1.825502216815949E-001;-2.009237185120583E-002;-5.478119477629662E-003;-5.102463066577911E-003;
2.413833333333334E+009;1.835941076278687E-001;-2.248228713870049E-002;-5.816548131406307E-003;-4.697626456618309E-003;
2.414000000000000E+009;1.846946030855179E-001;-2.467561513185501E-002;-5.780216306447983E-003;-4.551132675260305E-003;
2.414166666666667E+009;1.858875453472138E-001;-2.672102116048336E-002;-5.884727463126183E-003;-4.102943465113640E-003;
2.414333333333334E+009;1.871687322854996E-001;-2.921958826482296E-002;-6.014646030962467E-003;-3.806013613939285E-003;
2.414500000000000E+009;1.883922666311264E-001;-3.101620636880398E-002;-6.096252705901861E-003;-3.613534150645137E-003;
2.414666666666667E+009;1.898060142993927E-001;-3.277381882071495E-002;-6.206836085766554E-003;-3.166974289342761E-003;
2.414833333333334E+009;1.909809559583664E-001;-3.452289104461670E-002;-6.302378606051207E-003;-2.849227515980601E-003;
2.415000000000000E+009;1.921629309654236E-001;-3.599664568901062E-002;-6.461346056312323E-003;-2.784224227070808E-003;
2.415166666666667E+009;1.937555521726608E-001;-3.728209435939789E-002;-6.577612832188606E-003;-2.457880182191730E-003;
2.415333333333334E+009;1.950511038303375E-001;-3.849713504314423E-002;-6.477044429630041E-003;-2.237146953120828E-003;
2.415500000000000E+009;1.963553577661514E-001;-3.939098864793778E-002;-6.446793209761381E-003;-1.826320891268551E-003;
2.415666666666667E+009;1.977914720773697E-001;-4.046672210097313E-002;-6.677633151412010E-003;-1.637113513424993E-003;
2.415833333333334E+009;1.987736523151398E-001;-4.123181104660034E-002;-6.817337591201067E-003;-1.254643662832677E-003;
2.416000000000000E+009;1.999011784791946E-001;-4.207547008991242E-002;-6.842191796749830E-003;-8.869600715115666E-004;
2.416166666666667E+009;2.010098993778229E-001;-4.269079864025116E-002;-6.840520072728396E-003;-5.550794885493815E-004;
2.416333333333334E+009;2.019729167222977E-001;-4.298168048262596E-002;-6.760165560990572E-003;-2.311164134880528E-004;
2.416500000000000E+009;2.028034180402756E-001;-4.327781498432159E-002;-6.768016144633293E-003;9.738765947986394E-005;
2.416666666666667E+009;2.035370916128159E-001;-4.368236288428307E-002;-6.762719247490168E-003;3.316916408948600E-004;
2.416833333333334E+009;2.039642632007599E-001;-4.359370842576027E-002;-6.562873721122742E-003;7.411575643345714E-004;
2.417000000000000E+009;2.044231146574020E-001;-4.369549825787544E-002;-6.335854995995760E-003;1.177874859422445E-003;
2.417166666666667E+009;2.044700533151627E-001;-4.363453015685082E-002;-6.284906994551420E-003;1.518401666544378E-003;
2.417333333333334E+009;2.047292143106461E-001;-4.326678439974785E-002;-6.024063564836979E-003;1.678462140262127E-003;
2.417500000000000E+009;2.046915441751480E-001;-4.316148906946182E-002;-5.817352794110775E-003;1.805430278182030E-003;
2.417666666666667E+009;2.045879513025284E-001;-4.278012365102768E-002;-5.549573339521885E-003;1.880398485809565E-003;
2.417833333333334E+009;2.044729888439179E-001;-4.245733842253685E-002;-5.155918654054403E-003;2.117089228704572E-003;
2.418000000000000E+009;2.040819525718689E-001;-4.194191843271256E-002;-5.027768667787314E-003;2.195223700255156E-003;
2.418166666666667E+009;2.035552114248276E-001;-4.170119017362595E-002;-4.816860891878605E-003;2.382714534178376E-003;
2.418333333333334E+009;2.029108554124832E-001;-4.129280522465706E-002;-4.550616722553968E-003;2.421189565211535E-003;
2.418500000000000E+009;2.019354850053787E-001;-4.093692451715469E-002;-4.576482344418764E-003;2.487263409420848E-003;
2.418666666666667E+009;2.012505084276199E-001;-4.063337668776512E-002;-4.440226592123509E-003;2.478795358911157E-003;
2.418833333333334E+009;2.001538425683975E-001;-4.049039259552956E-002;-4.268576391041279E-003;2.447594422847033E-003;
2.419000000000000E+009;1.988591700792313E-001;-4.038747400045395E-002;-4.066846333444119E-003;2.419302240014076E-003;
2.419166666666667E+009;1.977235823869705E-001;-4.035342112183571E-002;-3.957058768719435E-003;2.457196824252605E-003;
2.419333333333334E+009;1.962818801403046E-001;-4.060695320367813E-002;-3.904998069629073E-003;2.444516401737928E-003;
2.419500000000000E+009;1.947962194681168E-001;-4.054554551839829E-002;-3.778428770601749E-003;2.584333764389157E-003;
2.419666666666667E+009;1.932720839977264E-001;-4.087127745151520E-002;-3.782782470807433E-003;2.416906645521522E-003;
2.419833333333334E+009;1.915338486433029E-001;-4.142081364989281E-002;-3.702915040776134E-003;2.613187534734607E-003;
2.420000000000000E+009;1.897798478603363E-001;-4.197208583354950E-002;-3.668566700071096E-003;2.550505567342043E-003;
2.420166666666667E+009;1.880420744419098E-001;-4.267583414912224E-002;-3.597950097173452E-003;2.688659820705652E-003;
2.420333333333334E+009;1.864068359136581E-001;-4.350500926375389E-002;-3.574708011001349E-003;2.708351472392678E-003;
2.420500000000000E+009;1.844429820775986E-001;-4.470280557870865E-002;-3.454764839261770E-003;2.970456378534436E-003;
2.420666666666667E+009;1.826668232679367E-001;-4.550714790821075E-002;-3.335511311888695E-003;3.137788735330105E-003;
2.420833333333334E+009;1.809488981962204E-001;-4.693596437573433E-002;-3.228584537282586E-003;3.029276151210070E-003;
2.421000000000000E+009;1.791380941867828E-001;-4.831966385245323E-002;-3.198839025571942E-003;3.121581161394715E-003;
2.421166666666667E+009;1.774807423353195E-001;-5.008232966065407E-002;-2.905503148213029E-003;3.417003201320767E-003;
2.421333333333334E+009;1.756174713373184E-001;-5.130780860781670E-002;-2.749579027295113E-003;3.366058226674795E-003;
2.421500000000000E+009;1.740095466375351E-001;-5.319058895111084E-002;-2.639461541548371E-003;3.407169599086046E-003;
2.421666666666667E+009;1.724837571382523E-001;-5.511697381734848E-002;-2.335546072572470E-003;3.385072806850076E-003;
2.421833333333334E+009;1.709802895784378E-001;-5.695853754878044E-002;-2.122550504282117E-003;3.277352778241038E-003;
2.422000000000000E+009;1.694955229759216E-001;-5.899597704410553E-002;-2.141388365998864E-003;3.304038196802139E-003;
2.422166666666667E+009;1.683316230773926E-001;-6.110819801688194E-002;-2.031613839790225E-003;3.114123363047838E-003;
2.422333333333334E+009;1.670980155467987E-001;-6.320413947105408E-002;-1.813399139791727E-003;2.895184792578220E-003;
2.422500000000000E+009;1.660865098237991E-001;-6.552057713270187E-002;-1.639407128095627E-003;2.994141541421413E-003;
2.422666666666667E+009;1.650721281766892E-001;-6.752035021781921E-002;-1.660655019804835E-003;2.771422266960144E-003;
2.422833333333334E+009;1.643114984035492E-001;-6.989957392215729E-002;-1.660906011238694E-003;2.792031271383166E-003;
2.423000000000000E+009;1.635117679834366E-001;-7.214391231536865E-002;-1.697659841738641E-003;2.703599631786346E-003;
2.423166666666667E+009;1.630147844552994E-001;-7.434469461441040E-002;-1.656428445130587E-003;2.615375211462379E-003;
2.423333333333334E+009;1.625154614448547E-001;-7.659956812858582E-002;-1.830760971643031E-003;2.588059753179550E-003;
2.423500000000000E+009;1.623921543359757E-001;-7.866961508989334E-002;-1.867786515504122E-003;2.692404901608825E-003;
2.423666666666667E+009;1.622139215469360E-001;-8.102547377347946E-002;-1.868929946795106E-003;2.426756313070655E-003;
2.423833333333334E+009;1.619749814271927E-001;-8.303641527891159E-002;-1.972805010154843E-003;2.379677491262555E-003;
2.424000000000000E+009;1.621133834123612E-001;-8.522798866033554E-002;-2.089667133986950E-003;2.443552482873201E-003;
2.424166666666667E+009;1.621925681829453E-001;-8.709591627120972E-002;-2.160380361601710E-003;2.554464386776090E-003;
2.424333333333334E+009;1.623200774192810E-001;-8.895330131053925E-002;-2.276204992085695E-003;2.550503704696894E-003;
2.424500000000000E+009;1.627608984708786E-001;-9.108791500329971E-002;-2.118849894031882E-003;2.821842906996608E-003;
2.424666666666667E+009;1.630995422601700E-001;-9.281099587678909E-002;-2.208392135798931E-003;3.047985723242164E-003;
2.424833333333334E+009;1.637948304414749E-001;-9.448890388011932E-002;-2.255703788250685E-003;3.047939389944077E-003;
2.425000000000000E+009;1.642322242259979E-001;-9.596940875053406E-002;-2.230380661785603E-003;3.305173013359308E-003;
2.425166666666667E+009;1.646620184183121E-001;-9.731379896402359E-002;-2.075245138257742E-003;3.367538563907147E-003;
2.425333333333334E+009;1.652525067329407E-001;-9.866843372583389E-002;-2.199809299781919E-003;3.277930663898587E-003;
2.425500000000000E+009;1.659306436777115E-001;-9.982210397720337E-002;-2.088579582050443E-003;3.787711262702942E-003;
2.425666666666667E+009;1.665185987949371E-001;-1.007094681262970E-001;-2.174357185140252E-003;3.765541361644864E-003;
2.425833333333334E+009;1.670674681663513E-001;-1.020073592662811E-001;-2.086099470034242E-003;3.945176023989916E-003;
2.426000000000000E+009;1.677401512861252E-001;-1.026018708944321E-001;-1.974845537915826E-003;4.083971492946148E-003;
2.426166666666667E+009;1.684195250272751E-001;-1.032771170139313E-001;-1.841577002778649E-003;4.282371606677771E-003;
2.426333333333334E+009;1.688940972089768E-001;-1.039874255657196E-001;-1.729026087559760E-003;4.387502092868090E-003;
2.426500000000000E+009;1.696040034294128E-001;-1.044093295931816E-001;-1.660387730225921E-003;4.434370901435614E-003;
2.426666666666667E+009;1.701238602399826E-001;-1.048217266798019E-001;-1.382584800012410E-003;4.587606992572546E-003;
2.426833333333334E+009;1.706366837024689E-001;-1.051862314343453E-001;-1.364982454106212E-003;4.668768960982561E-003;
2.427000000000000E+009;1.709654927253723E-001;-1.054323092103005E-001;-1.044295728206635E-003;4.656629171222448E-003;
2.427166666666667E+009;1.713334470987320E-001;-1.055945530533791E-001;-8.692643023096025E-004;4.831290803849697E-003;
2.427333333333334E+009;1.715579926967621E-001;-1.058570295572281E-001;-8.752652793191373E-004;5.105817224830389E-003;
2.427500000000000E+009;1.716548949480057E-001;-1.058342531323433E-001;-6.719977827742696E-004;5.167944822460413E-003;
2.427666666666667E+009;1.717217862606049E-001;-1.057962104678154E-001;-4.885453381575644E-004;5.107053089886904E-003;
