# Version 1.00
#
freq[Hz];re:Trc1_S11;im:Trc1_S11;re:Trc2_S21;im:Trc2_S21;
2.400000000000000E+009;1.573622524738312E-001;1.114001125097275E-001;7.308940403163433E-003;4.070659633725882E-004;
2.400166666666667E+009;1.566485166549683E-001;1.092942655086517E-001;7.628760766237974E-003;8.958028774941340E-005;
2.400333333333334E+009;1.563328653573990E-001;1.072141900658608E-001;7.703637238591909E-003;-4.079659411218017E-004;
2.400500000000000E+009;1.558046936988831E-001;1.046803742647171E-001;7.796887308359146E-003;-5.010258755646646E-004;
2.400666666666667E+009;1.556065082550049E-001;1.022640466690064E-001;7.881745696067810E-003;-1.022352254949510E-003;
2.400833333333334E+009;1.552824527025223E-001;9.939987957477570E-002;7.798159960657358E-003;-1.611153595149517E-003;
2.401000000000000E+009;1.550500094890595E-001;9.668312221765518E-002;7.814601063728333E-003;-2.007445553317666E-003;
2.401166666666667E+009;1.547513455152512E-001;9.378990530967712E-002;7.640849798917770E-003;-2.364157931879163E-003;
2.401333333333334E+009;1.547650545835495E-001;9.092383831739426E-002;7.693718653172255E-003;-2.963824663311243E-003;
2.401500000000000E+009;1.548742055892944E-001;8.783907443284988E-002;7.456624880433083E-003;-3.334352280944586E-003;
2.401666666666667E+009;1.548418849706650E-001;8.495313674211502E-002;7.121137343347073E-003;-3.834422910586000E-003;
2.401833333333334E+009;1.551746279001236E-001;8.200465142726898E-002;6.773378234356642E-003;-4.201398231089115E-003;
2.402000000000000E+009;1.555723696947098E-001;7.900800555944443E-002;6.208209320902824E-003;-4.648260306566954E-003;
2.402166666666667E+009;1.561319679021835E-001;7.603402435779572E-002;5.726353265345097E-003;-4.809165373444557E-003;
2.402333333333334E+009;1.566965579986572E-001;7.318177819252014E-002;5.553495604544878E-003;-4.952056799083948E-003;
2.402500000000000E+009;1.576294302940369E-001;7.024747133255005E-002;5.241656210273504E-003;-5.214107222855091E-003;
2.402666666666667E+009;1.584669202566147E-001;6.769160926342011E-002;4.845494404435158E-003;-5.147524178028107E-003;
2.402833333333334E+009;1.596951633691788E-001;6.494076550006867E-002;4.337990656495094E-003;-5.447854753583670E-003;
2.403000000000000E+009;1.609797924757004E-001;6.212696433067322E-002;3.972545731812716E-003;-5.446495022624731E-003;
2.403166666666667E+009;1.626808792352676E-001;5.967599898576737E-002;3.486461238935590E-003;-5.411754362285137E-003;
2.403333333333334E+009;1.638021618127823E-001;5.695471912622452E-002;3.260785946622491E-003;-5.189265590161085E-003;
2.403500000000000E+009;1.654442399740219E-001;5.450750514864922E-002;2.900163643062115E-003;-5.200581625103951E-003;
2.403666666666667E+009;1.669703423976898E-001;5.233170464634895E-002;2.697519259527326E-003;-5.031868815422058E-003;
2.403833333333334E+009;1.688204556703568E-001;5.028032511472702E-002;2.394540933892131E-003;-4.962836857885122E-003;
2.404000000000000E+009;1.704513728618622E-001;4.798562824726105E-002;2.338188234716654E-003;-4.743587691336870E-003;
2.404166666666667E+009;1.724847853183746E-001;4.631096869707108E-002;1.932737068273127E-003;-4.724253900349140E-003;
2.404333333333334E+009;1.741005331277847E-001;4.429642111063004E-002;1.808011322282255E-003;-4.407209344208241E-003;
2.404500000000000E+009;1.758635640144348E-001;4.265731200575829E-002;1.762110041454434E-003;-4.302664659917355E-003;
2.404666666666667E+009;1.779522150754929E-001;4.147392511367798E-002;1.672063372097910E-003;-4.292372148483992E-003;
2.404833333333334E+009;1.796403229236603E-001;3.992086276412010E-002;1.635759370401502E-003;-4.346290603280067E-003;
2.405000000000000E+009;1.812941133975983E-001;3.902426362037659E-002;1.673665829002857E-003;-4.082630854099989E-003;
2.405166666666667E+009;1.829937100410461E-001;3.824565187096596E-002;1.562127028591931E-003;-4.211310297250748E-003;
2.405333333333334E+009;1.848099082708359E-001;3.755952417850494E-002;1.513559138402343E-003;-4.116802476346493E-003;
2.405500000000000E+009;1.865776926279068E-001;3.684223815798760E-002;1.365406322292984E-003;-4.276404157280922E-003;
2.405666666666667E+009;1.880993098020554E-001;3.649556264281273E-002;1.212494214996696E-003;-4.115152638405561E-003;
2.405833333333334E+009;1.898351162672043E-001;3.620075061917305E-002;1.260076533071697E-003;-4.068982787430286E-003;
2.406000000000000E+009;1.911519616842270E-001;3.584450110793114E-002;1.119308988563716E-003;-4.051911178976297E-003;
2.406166666666667E+009;1.925739049911499E-001;3.576556593179703E-002;1.014335895888507E-003;-3.946513403207064E-003;
2.406333333333334E+009;1.937702298164368E-001;3.582711145281792E-002;9.013718226924539E-004;-3.979502711445093E-003;
2.406500000000000E+009;1.950366199016571E-001;3.583151474595070E-002;1.002753502689302E-003;-3.835623152554035E-003;
2.406666666666667E+009;1.960209161043167E-001;3.593270108103752E-002;9.562495979480445E-004;-3.807789878919721E-003;
2.406833333333334E+009;1.968802362680435E-001;3.611898049712181E-002;8.630965021438897E-004;-3.656288608908653E-003;
2.407000000000000E+009;1.976315677165985E-001;3.649761527776718E-002;6.810784107074142E-004;-3.613945329561830E-003;
2.407166666666667E+009;1.984832733869553E-001;3.649048879742622E-002;7.356500718742609E-004;-3.505645086988807E-003;
2.407333333333334E+009;1.986030638217926E-001;3.686525300145149E-002;7.454460137523711E-004;-3.647594479843974E-003;
2.407500000000000E+009;1.989869475364685E-001;3.730795904994011E-002;8.435518248006702E-004;-3.426489187404513E-003;
2.407666666666667E+009;1.994021683931351E-001;3.746300190687180E-002;1.000493881292641E-003;-3.518562996760011E-003;
2.407833333333334E+009;1.991593688726425E-001;3.773596137762070E-002;1.037377398461103E-003;-3.495527664199472E-003;
2.408000000000000E+009;1.992144882678986E-001;3.787313774228096E-002;9.340341202914715E-004;-3.593025729060173E-003;
2.408166666666667E+009;1.988274604082108E-001;3.794273734092712E-002;1.087947282940149E-003;-3.542083315551281E-003;
2.408333333333334E+009;1.986735910177231E-001;3.782599046826363E-002;1.134509104304016E-003;-3.662529634311795E-003;
2.408500000000000E+009;1.980669945478439E-001;3.789749741554260E-002;1.177234225906432E-003;-3.875216469168663E-003;
2.408666666666667E+009;1.974929571151733E-001;3.769544884562492E-002;1.230600057169795E-003;-3.958737477660179E-003;
2.408833333333334E+009;1.968911439180374E-001;3.737796843051910E-002;1.110207755118609E-003;-4.076459910720587E-003;
2.409000000000000E+009;1.958764493465424E-001;3.689120337367058E-002;1.078254659660161E-003;-4.257529973983765E-003;
2.409166666666667E+009;1.950075179338455E-001;3.637445718050003E-002;1.235866686329246E-003;-4.177091643214226E-003;
2.409333333333334E+009;1.939114034175873E-001;3.574723377823830E-002;1.126963528804481E-003;-4.272249527275562E-003;
2.409500000000000E+009;1.927070170640945E-001;3.490602970123291E-002;1.140731154009700E-003;-4.563249181956053E-003;
2.409666666666667E+009;1.916175782680512E-001;3.385138511657715E-002;1.022822922095656E-003;-4.775328096002340E-003;
2.409833333333334E+009;1.903447508811951E-001;3.281116858124733E-002;9.197333129122853E-004;-4.903433378785849E-003;
2.410000000000000E+009;1.891558915376663E-001;3.136411681771278E-002;8.327125688083470E-004;-5.128500051796436E-003;
2.410166666666667E+009;1.880642920732498E-001;2.999810129404068E-002;7.589434972032905E-004;-5.166336428374052E-003;
2.410333333333334E+009;1.867100596427918E-001;2.836782671511173E-002;5.917154485359788E-004;-5.422315560281277E-003;
2.410500000000000E+009;1.854409277439117E-001;2.670113183557987E-002;6.281115929596126E-004;-5.572129972279072E-003;
2.410666666666667E+009;1.843952387571335E-001;2.476811595261097E-002;3.224464599043131E-004;-5.689822137355804E-003;
2.410833333333334E+009;1.834803223609924E-001;2.268022298812866E-002;4.636803714674898E-005;-5.875216331332922E-003;
2.411000000000000E+009;1.822319477796555E-001;2.054668217897415E-002;-1.283490710193291E-004;-6.153602153062820E-003;
2.411166666666667E+009;1.813095659017563E-001;1.848750561475754E-002;-4.737115523312241E-004;-6.187846418470144E-003;
2.411333333333334E+009;1.804716140031815E-001;1.609500311315060E-002;-6.860199500806630E-004;-6.337554194033146E-003;
2.411500000000000E+009;1.796155571937561E-001;1.373310666531324E-002;-1.085927127860487E-003;-6.455811206251383E-003;
2.411666666666667E+009;1.791543066501617E-001;1.133992802351713E-002;-1.458080718293786E-003;-6.497203372418881E-003;
2.411833333333334E+009;1.785937696695328E-001;8.893981575965881E-003;-1.751675037667155E-003;-6.584041751921177E-003;
2.412000000000000E+009;1.782405078411102E-001;6.089429836720228E-003;-2.104242565110326E-003;-6.511665415018797E-003;
2.412166666666667E+009;1.780092269182205E-001;3.649807069450617E-003;-2.423439174890518E-003;-6.609593518078327E-003;
2.412333333333334E+009;1.780310124158859E-001;9.818562539294362E-004;-2.757822396233678E-003;-6.516946014016867E-003;
2.412500000000000E+009;1.780549287796021E-001;-1.638075802475214E-003;-3.233785508200526E-003;-6.420606281608343E-003;
2.412666666666667E+009;1.783789098262787E-001;-4.198384471237660E-003;-3.408650867640972E-003;-6.296793464571238E-003;
2.412833333333334E+009;1.788572221994400E-001;-7.004435174167156E-003;-3.821236314252019E-003;-6.139193195849657E-003;
2.413000000000000E+009;1.794529259204865E-001;-9.542568586766720E-003;-4.068534355610609E-003;-5.964712705463171E-003;
2.413166666666667E+009;1.800808757543564E-001;-1.209554634988308E-002;-4.527791868895292E-003;-5.852927453815937E-003;
2.413333333333334E+009;1.807612776756287E-001;-1.477666571736336E-002;-4.877597093582153E-003;-5.714063532650471E-003;
2.413500000000000E+009;1.816366612911224E-001;-1.725991256535053E-002;-5.061973351985216E-003;-5.327890161424875E-003;
2.413666666666667E+009;1.828386038541794E-001;-1.987495645880699E-002;-5.398948676884174E-003;-5.046812351793051E-003;
2.413833333333334E+009;1.837288886308670E-001;-2.231555245816708E-002;-5.633199587464333E-003;-4.660770297050476E-003;
2.414000000000000E+009;1.847198009490967E-001;-2.437211759388447E-002;-5.804926156997681E-003;-4.551887046545744E-003;
2.414166666666667E+009;1.860464811325073E-001;-2.656393125653267E-002;-5.896080285310745E-003;-4.088934045284987E-003;
2.414333333333334E+009;1.872060000896454E-001;-2.897767536342144E-002;-6.165393628180027E-003;-3.751155221834779E-003;
2.414500000000000E+009;1.884683668613434E-001;-3.077777661383152E-002;-6.214249413460493E-003;-3.534825984388590E-003;
2.414666666666667E+009;1.897790879011154E-001;-3.250532597303391E-002;-6.472995504736900E-003;-3.205116372555494E-003;
2.414833333333334E+009;1.911804825067520E-001;-3.418251127004623E-002;-6.353206001222134E-003;-3.093160223215818E-003;
2.415000000000000E+009;1.923429965972900E-001;-3.559472039341927E-002;-6.452182307839394E-003;-2.624693792313337E-003;
2.415166666666667E+009;1.938703060150147E-001;-3.724214807152748E-002;-6.521170493215323E-003;-2.442790195345879E-003;
2.415333333333334E+009;1.953317523002625E-001;-3.824374452233315E-002;-6.643253844231367E-003;-2.162017161026597E-003;
2.415500000000000E+009;1.966147273778915E-001;-3.924846649169922E-002;-6.681357044726610E-003;-1.913357060402632E-003;
2.415666666666667E+009;1.979437321424484E-001;-4.029323533177376E-002;-6.846070289611816E-003;-1.534077804535627E-003;
2.415833333333334E+009;1.990527212619782E-001;-4.107762128114700E-002;-6.881657056510449E-003;-1.157895079813898E-003;
2.416000000000000E+009;2.001316100358963E-001;-4.174096882343292E-002;-6.917856168001890E-003;-1.045920536853373E-003;
2.416166666666667E+009;2.011975347995758E-001;-4.240513965487480E-002;-6.929933093488216E-003;-5.238463054411113E-004;
2.416333333333334E+009;2.021360993385315E-001;-4.279402643442154E-002;-6.800883915275335E-003;-2.427613362669945E-004;
2.416500000000000E+009;2.030262947082520E-001;-4.304052516818047E-002;-6.867842748761177E-003;1.074921528925188E-004;
2.416666666666667E+009;2.036546170711517E-001;-4.346116632223129E-002;-6.882424931973219E-003;7.125100237317383E-004;
2.416833333333334E+009;2.042378783226013E-001;-4.352141544222832E-002;-6.589685566723347E-003;9.082107571884990E-004;
2.417000000000000E+009;2.046394795179367E-001;-4.367414116859436E-002;-6.412155926227570E-003;1.034289249219000E-003;
2.417166666666667E+009;2.047647237777710E-001;-4.332368075847626E-002;-6.310656666755676E-003;1.469503273256123E-003;
2.417333333333334E+009;2.049194127321243E-001;-4.313230887055397E-002;-6.042942870408297E-003;1.776017947122455E-003;
2.417500000000000E+009;2.049543112516403E-001;-4.297456890344620E-002;-5.881151650100946E-003;1.959752989932895E-003;
2.417666666666667E+009;2.047838121652603E-001;-4.257266968488693E-002;-5.587511230260134E-003;2.083071274682879E-003;
2.417833333333334E+009;2.046240121126175E-001;-4.240317642688751E-002;-5.453485995531082E-003;2.157509792596102E-003;
2.418000000000000E+009;2.042374312877655E-001;-4.178394749760628E-002;-5.055287852883339E-003;2.320708939805627E-003;
2.418166666666667E+009;2.036954909563065E-001;-4.157678037881851E-002;-4.929707385599613E-003;2.330717397853732E-003;
2.418333333333334E+009;2.030855715274811E-001;-4.117684066295624E-002;-4.626031033694744E-003;2.487741410732269E-003;
2.418500000000000E+009;2.022697031497955E-001;-4.100265353918076E-002;-4.514260217547417E-003;2.467457437887788E-003;
2.418666666666667E+009;2.014925777912140E-001;-4.046598076820374E-002;-4.417475778609514E-003;2.446639817208052E-003;
2.418833333333334E+009;2.003229260444641E-001;-4.044828191399574E-002;-4.358894657343626E-003;2.428350737318397E-003;
2.419000000000000E+009;1.991847008466721E-001;-4.041226208209992E-002;-4.137033596634865E-003;2.694576978683472E-003;
2.419166666666667E+009;1.978752613067627E-001;-4.041375964879990E-002;-4.172808956354857E-003;2.498993882909417E-003;
2.419333333333334E+009;1.963704377412796E-001;-4.045744612812996E-002;-3.917923197150230E-003;2.654194366186857E-003;
2.419500000000000E+009;1.948928087949753E-001;-4.054044187068939E-002;-3.920315764844418E-003;2.702839672565460E-003;
2.419666666666667E+009;1.935132145881653E-001;-4.100756347179413E-002;-3.808073466643691E-003;2.645261352881789E-003;
2.419833333333334E+009;1.917304098606110E-001;-4.141402617096901E-002;-3.762852633371949E-003;2.680197358131409E-003;
2.420000000000000E+009;1.901456564664841E-001;-4.202871397137642E-002;-3.728640731424093E-003;2.896207151934505E-003;
2.420166666666667E+009;1.882437467575073E-001;-4.278583452105522E-002;-3.739050822332501E-003;2.839623484760523E-003;
2.420333333333334E+009;1.865730285644531E-001;-4.345409572124481E-002;-3.579017939046025E-003;2.950984984636307E-003;
2.420500000000000E+009;1.846098303794861E-001;-4.461613669991493E-002;-3.519286168739200E-003;3.091827267780900E-003;
2.420666666666667E+009;1.828498244285584E-001;-4.555060341954231E-002;-3.438892075791955E-003;3.143898211419582E-003;
2.420833333333334E+009;1.809748858213425E-001;-4.694859310984612E-002;-3.241252386942506E-003;3.336618421599269E-003;
2.421000000000000E+009;1.792297661304474E-001;-4.842203110456467E-002;-3.130955155938864E-003;3.475769422948360E-003;
2.421166666666667E+009;1.775643825531006E-001;-4.982656985521317E-002;-2.983830869197846E-003;3.468349808827043E-003;
2.421333333333334E+009;1.756603866815567E-001;-5.136383697390556E-002;-2.710171975195408E-003;3.497673198580742E-003;
2.421500000000000E+009;1.739403456449509E-001;-5.322402715682983E-002;-2.583333058282733E-003;3.643441246822476E-003;
2.421666666666667E+009;1.725424230098724E-001;-5.510940775275230E-002;-2.504218835383654E-003;3.473828546702862E-003;
2.421833333333334E+009;1.710815429687500E-001;-5.693927779793739E-002;-2.194071654230356E-003;3.470388473942876E-003;
2.422000000000000E+009;1.696458607912064E-001;-5.896979570388794E-002;-1.986026763916016E-003;3.412246471270919E-003;
2.422166666666667E+009;1.684667915105820E-001;-6.117735803127289E-002;-1.891702995635569E-003;3.315464826300740E-003;
2.422333333333334E+009;1.671847999095917E-001;-6.327080726623535E-002;-1.617198926396668E-003;3.082239301875234E-003;
2.422500000000000E+009;1.660806685686112E-001;-6.535805761814117E-002;-1.679829554632306E-003;3.141890047118068E-003;
2.422666666666667E+009;1.650311946868897E-001;-6.757618486881256E-002;-1.638933317735791E-003;2.842088229954243E-003;
2.422833333333334E+009;1.643040478229523E-001;-6.981855630874634E-002;-1.615737914107740E-003;2.762301592156291E-003;
2.423000000000000E+009;1.635601669549942E-001;-7.211928069591522E-002;-1.626097480766475E-003;2.776856068521738E-003;
2.423166666666667E+009;1.631192564964294E-001;-7.431659847497940E-002;-1.584095065481961E-003;2.657380187883973E-003;
2.423333333333334E+009;1.625512242317200E-001;-7.662026584148407E-002;-1.712430152110755E-003;2.564638154581189E-003;
2.423500000000000E+009;1.623970419168472E-001;-7.870226353406906E-002;-1.789138885214925E-003;2.478286623954773E-003;
2.423666666666667E+009;1.623153090476990E-001;-8.114758133888245E-002;-1.795189571566880E-003;2.540089888498187E-003;
2.423833333333334E+009;1.621335744857788E-001;-8.298458904027939E-002;-2.077875193208456E-003;2.436393871903420E-003;
2.424000000000000E+009;1.623101830482483E-001;-8.517256379127502E-002;-1.936428132466972E-003;2.594575053080916E-003;
2.424166666666667E+009;1.622039377689362E-001;-8.705478906631470E-002;-2.143099671229720E-003;2.717382507398725E-003;
2.424333333333334E+009;1.626857817173004E-001;-8.902237564325333E-002;-2.085105981677771E-003;2.750806510448456E-003;
2.424500000000000E+009;1.628717482089996E-001;-9.107752144336700E-002;-2.195802517235279E-003;2.911545336246491E-003;
2.424666666666667E+009;1.632943451404572E-001;-9.268525242805481E-002;-2.207436133176088E-003;2.874187426641583E-003;
2.424833333333334E+009;1.639697700738907E-001;-9.426376223564148E-002;-2.246650168672204E-003;3.150984877720475E-003;
2.425000000000000E+009;1.643454730510712E-001;-9.586506336927414E-002;-2.192629734054208E-003;3.443414112553001E-003;
2.425166666666667E+009;1.648754179477692E-001;-9.727045148611069E-002;-2.105432795360684E-003;3.337768837809563E-003;
2.425333333333334E+009;1.653462797403336E-001;-9.861584752798080E-002;-2.145416103303433E-003;3.569999011233449E-003;
2.425500000000000E+009;1.660518795251846E-001;-9.986708313226700E-002;-2.258379478007555E-003;3.690093522891402E-003;
2.425666666666667E+009;1.667241007089615E-001;-1.008724644780159E-001;-2.193892840296030E-003;3.781837644055486E-003;
2.425833333333334E+009;1.672112345695496E-001;-1.018926724791527E-001;-2.100401325151324E-003;3.935031127184629E-003;
2.426000000000000E+009;1.679074913263321E-001;-1.025731116533279E-001;-1.810139277949929E-003;4.072492010891438E-003;
2.426166666666667E+009;1.684943735599518E-001;-1.032037734985352E-001;-1.763514475896955E-003;4.300119820982218E-003;
2.426333333333334E+009;1.689539104700089E-001;-1.039042547345161E-001;-1.606070320121944E-003;4.328432958573103E-003;
2.426500000000000E+009;1.697053313255310E-001;-1.043532192707062E-001;-1.493295305408537E-003;4.664540756493807E-003;
2.426666666666667E+009;1.702543199062347E-001;-1.047841459512711E-001;-1.383908791467547E-003;4.594074562191963E-003;
2.426833333333334E+009;1.708245724439621E-001;-1.051462888717651E-001;-1.270051696337760E-003;4.764966201037169E-003;
2.427000000000000E+009;1.711192131042481E-001;-1.054426208138466E-001;-8.356071775779128E-004;4.843718837946653E-003;
2.427166666666667E+009;1.715597063302994E-001;-1.053999811410904E-001;-7.931866566650569E-004;4.981788340955973E-003;
2.427333333333334E+009;1.717680245637894E-001;-1.056647375226021E-001;-6.807800382375717E-004;4.974696785211563E-003;
2.427500000000000E+009;1.718543022871018E-001;-1.058311313390732E-001;-5.442191031761468E-004;5.167528986930847E-003;
2.427666666666667E+009;1.719147711992264E-001;-1.058583408594132E-001;-3.968241799157113E-004;5.184848327189684E-003;
