# Version 1.00
#
freq[Hz];re:Trc1_S11;im:Trc1_S11;re:Trc2_S21;im:Trc2_S21;
2.400000000000000E+009;1.574082672595978E-001;1.116828918457031E-001;7.543934043496847E-003;5.136228865012527E-004;
2.400166666666667E+009;1.568219214677811E-001;1.096286326646805E-001;7.734971120953560E-003;1.383963535772637E-005;
2.400333333333334E+009;1.566051840782166E-001;1.074859201908112E-001;7.814664393663406E-003;-2.720818738453090E-004;
2.400500000000000E+009;1.561454981565476E-001;1.048976108431816E-001;7.798422127962112E-003;-7.220102706924081E-004;
2.400666666666667E+009;1.556790173053742E-001;1.024271696805954E-001;8.011700585484505E-003;-9.884922765195370E-004;
2.400833333333334E+009;1.553291976451874E-001;9.970384091138840E-002;8.033738471567631E-003;-1.512374379672110E-003;
2.401000000000000E+009;1.551723182201386E-001;9.686766564846039E-002;7.799523416906595E-003;-2.041267231106758E-003;
2.401166666666667E+009;1.549670994281769E-001;9.416256844997406E-002;7.811499759554863E-003;-2.492717001587153E-003;
2.401333333333334E+009;1.548701375722885E-001;9.116774797439575E-002;7.559913210570812E-003;-3.019638126716018E-003;
2.401500000000000E+009;1.550391465425491E-001;8.832776546478272E-002;7.395086809992790E-003;-3.417865373194218E-003;
2.401666666666667E+009;1.550870835781097E-001;8.511282503604889E-002;7.125888019800186E-003;-3.982378635555506E-003;
2.401833333333334E+009;1.551520377397537E-001;8.215853571891785E-002;6.635042838752270E-003;-4.127626307308674E-003;
2.402000000000000E+009;1.557997465133667E-001;7.923520356416702E-002;6.396710872650147E-003;-4.510424099862576E-003;
2.402166666666667E+009;1.563601344823837E-001;7.656048983335495E-002;5.977119319140911E-003;-4.763023462146521E-003;
2.402333333333334E+009;1.571499854326248E-001;7.321076095104218E-002;5.428828764706850E-003;-5.053327884525061E-003;
2.402500000000000E+009;1.578379869461060E-001;7.041820138692856E-002;5.433116108179092E-003;-5.191895645111799E-003;
2.402666666666667E+009;1.587110310792923E-001;6.790211051702499E-002;4.765106830745935E-003;-5.146685987710953E-003;
2.402833333333334E+009;1.600106358528137E-001;6.510549038648605E-002;4.329596180468798E-003;-5.477438680827618E-003;
2.403000000000000E+009;1.610889583826065E-001;6.243360787630081E-002;4.211181309074163E-003;-5.234613083302975E-003;
2.403166666666667E+009;1.628341674804688E-001;5.974884703755379E-002;3.709318581968546E-003;-5.327494349330664E-003;
2.403333333333334E+009;1.641217023134232E-001;5.721411481499672E-002;3.285536542534828E-003;-5.349913612008095E-003;
2.403500000000000E+009;1.658840328454971E-001;5.482218042016029E-002;2.906416775658727E-003;-5.137555766850710E-003;
2.403666666666667E+009;1.673954725265503E-001;5.252151191234589E-002;2.634444041177630E-003;-5.266005173325539E-003;
2.403833333333334E+009;1.691710799932480E-001;5.035849288105965E-002;2.417473588138819E-003;-5.047522950917482E-003;
2.404000000000000E+009;1.708225458860397E-001;4.804505035281181E-002;2.214571461081505E-003;-4.755230620503426E-003;
2.404166666666667E+009;1.726586073637009E-001;4.621606320142746E-002;2.031979616731405E-003;-4.642793908715248E-003;
2.404333333333334E+009;1.744321286678314E-001;4.456058144569397E-002;1.961964415386319E-003;-4.565963987261057E-003;
2.404500000000000E+009;1.764980554580689E-001;4.283352568745613E-002;1.865084981545806E-003;-4.454984329640865E-003;
2.404666666666667E+009;1.782184094190598E-001;4.192637279629707E-002;1.705988077446818E-003;-4.360731691122055E-003;
2.404833333333334E+009;1.802952289581299E-001;4.002462700009346E-002;1.646180171519518E-003;-4.290238954126835E-003;
2.405000000000000E+009;1.815545260906220E-001;3.887567669153214E-002;1.800258643925190E-003;-4.069495480507612E-003;
2.405166666666667E+009;1.834518164396286E-001;3.829731419682503E-002;1.120467553846538E-003;-4.385922104120255E-003;
2.405333333333334E+009;1.845308840274811E-001;3.771306201815605E-002;1.443888759240508E-003;-5.149436648935080E-003;
2.405500000000000E+009;1.866073012351990E-001;3.709652274847031E-002;1.346314675174654E-003;-5.003107711672783E-003;
2.405666666666667E+009;1.884537786245346E-001;3.662298992276192E-002;9.727526921778917E-004;-4.427939187735319E-003;
2.405833333333334E+009;1.905069947242737E-001;3.596043214201927E-002;1.097750966437161E-003;-2.579025924205780E-003;
2.406000000000000E+009;1.916572898626328E-001;3.613570705056191E-002;4.129842636757530E-005;-4.107532091438770E-003;
2.406166666666667E+009;1.928457170724869E-001;3.591307625174522E-002;7.300439174287021E-004;-4.217437468469143E-003;
2.406333333333334E+009;1.941858828067780E-001;3.543131425976753E-002;1.397505053319037E-003;-3.579255891963840E-003;
2.406500000000000E+009;1.954354047775269E-001;3.577347099781036E-002;6.832311046309769E-004;-3.543241415172815E-003;
2.406666666666667E+009;1.963144242763519E-001;3.599181398749352E-002;9.542232146486640E-004;-3.847944783046842E-003;
2.406833333333334E+009;1.972632557153702E-001;3.609969466924667E-002;8.101610583253205E-004;-3.767962800338864E-003;
2.407000000000000E+009;1.979075968265533E-001;3.659594804048538E-002;8.055130019783974E-004;-3.623368451371789E-003;
2.407166666666667E+009;1.986326128244400E-001;3.668630868196487E-002;9.009680361486971E-004;-3.778572194278240E-003;
2.407333333333334E+009;1.990134418010712E-001;3.697611019015312E-002;7.485211244784296E-004;-3.665215568616986E-003;
2.407500000000000E+009;1.992160230875015E-001;3.734310716390610E-002;8.994567324407399E-004;-3.657903755083680E-003;
2.407666666666667E+009;1.996347308158875E-001;3.759666532278061E-002;9.894673712551594E-004;-3.581259632483125E-003;
2.407833333333334E+009;1.992760896682739E-001;3.767925500869751E-002;1.043304218910635E-003;-3.527687396854162E-003;
2.408000000000000E+009;1.994618922472000E-001;3.782361000776291E-002;1.073764753527939E-003;-3.541970858350396E-003;
2.408166666666667E+009;1.991351842880249E-001;3.800037503242493E-002;1.055200584232807E-003;-3.663811367005110E-003;
2.408333333333334E+009;1.988821327686310E-001;3.772772476077080E-002;1.089330529794097E-003;-3.814142430201173E-003;
2.408500000000000E+009;1.981901675462723E-001;3.783154860138893E-002;1.280531520023942E-003;-3.804435255005956E-003;
2.408666666666667E+009;1.977982223033905E-001;3.782240301370621E-002;1.188231282867491E-003;-4.034999292343855E-003;
2.408833333333334E+009;1.971252411603928E-001;3.736149519681931E-002;1.116598024964333E-003;-4.074484109878540E-003;
2.409000000000000E+009;1.962460130453110E-001;3.691340610384941E-002;1.155356876552105E-003;-4.160020034760237E-003;
2.409166666666667E+009;1.952317655086517E-001;3.644598275423050E-002;1.071873935870826E-003;-4.369698930531740E-003;
2.409333333333334E+009;1.940846443176270E-001;3.576800972223282E-002;1.255823182873428E-003;-4.556305240839720E-003;
2.409500000000000E+009;1.930258125066757E-001;3.471873328089714E-002;1.054572872817516E-003;-4.627638030797243E-003;
2.409666666666667E+009;1.917510777711868E-001;3.376383334398270E-002;1.092622755095363E-003;-4.819696769118309E-003;
2.409833333333334E+009;1.907172352075577E-001;3.256453946232796E-002;9.013390517793596E-004;-5.012491252273321E-003;
2.410000000000000E+009;1.893623173236847E-001;3.145999461412430E-002;7.584588020108640E-004;-5.085791461169720E-003;
2.410166666666667E+009;1.882964074611664E-001;2.985800430178642E-002;6.944498163647950E-004;-5.358366295695305E-003;
2.410333333333334E+009;1.869481950998306E-001;2.837143279612064E-002;5.389907164499164E-004;-5.517002660781145E-003;
2.410500000000000E+009;1.857904642820358E-001;2.666973322629929E-002;3.322394622955471E-004;-5.695478059351444E-003;
2.410666666666667E+009;1.844792515039444E-001;2.461851388216019E-002;2.175107656512409E-004;-5.904508288949728E-003;
2.410833333333334E+009;1.836112439632416E-001;2.277597784996033E-002;-6.326815491775051E-005;-6.075481884181500E-003;
2.411000000000000E+009;1.824595183134079E-001;2.041322551667690E-002;-2.375521871726960E-004;-6.197319366037846E-003;
2.411166666666667E+009;1.816157996654511E-001;1.848823018372059E-002;-5.296201561577618E-004;-6.316324695944786E-003;
2.411333333333334E+009;1.805322617292404E-001;1.592203788459301E-002;-8.838013163767755E-004;-6.520201452076435E-003;
2.411500000000000E+009;1.797791123390198E-001;1.357918325811625E-002;-1.111054909415543E-003;-6.641029380261898E-003;
2.411666666666667E+009;1.793300658464432E-001;1.108966954052448E-002;-1.545293373055756E-003;-6.649370305240154E-003;
2.411833333333334E+009;1.786873191595078E-001;8.723031729459763E-003;-1.882872660644352E-003;-6.584730930626392E-003;
2.412000000000000E+009;1.786431074142456E-001;6.080462131649256E-003;-2.123337239027023E-003;-6.771016400307417E-003;
2.412166666666667E+009;1.783026903867722E-001;3.561580087989569E-003;-2.438541501760483E-003;-6.557680666446686E-003;
2.412333333333334E+009;1.780743300914764E-001;9.824356529861689E-004;-2.811037469655275E-003;-6.590285804122686E-003;
2.412500000000000E+009;1.783123612403870E-001;-1.810371992178261E-003;-3.171317512169480E-003;-6.558747962117195E-003;
2.412666666666667E+009;1.785464435815811E-001;-4.448835272341967E-003;-3.552328096702695E-003;-6.379909347742796E-003;
2.412833333333334E+009;1.790355145931244E-001;-7.277457043528557E-003;-3.854231908917427E-003;-6.404315587133169E-003;
2.413000000000000E+009;1.795986890792847E-001;-9.632550179958344E-003;-4.222699906677008E-003;-6.100788246840239E-003;
2.413166666666667E+009;1.801152229309082E-001;-1.233407203108072E-002;-4.637883044779301E-003;-5.996044725179672E-003;
2.413333333333334E+009;1.811278164386749E-001;-1.481088809669018E-002;-4.962185397744179E-003;-5.732132587581873E-003;
2.413500000000000E+009;1.816602349281311E-001;-1.748512685298920E-002;-5.128415301442146E-003;-5.481186788529158E-003;
2.413666666666667E+009;1.828871369361877E-001;-2.001069113612175E-002;-5.466000176966190E-003;-5.238839890807867E-003;
2.413833333333334E+009;1.839615255594254E-001;-2.246024832129479E-002;-5.616188980638981E-003;-4.786359611898661E-003;
2.414000000000000E+009;1.849466562271118E-001;-2.474479563534260E-002;-5.777443759143353E-003;-4.575627390295267E-003;
2.414166666666667E+009;1.860904544591904E-001;-2.675769105553627E-002;-6.073748692870140E-003;-4.275877028703690E-003;
2.414333333333334E+009;1.874658316373825E-001;-2.909883670508862E-002;-6.289143580943346E-003;-3.760209539905191E-003;
2.414500000000000E+009;1.886015683412552E-001;-3.099028952419758E-002;-6.219465285539627E-003;-3.469163086265326E-003;
2.414666666666667E+009;1.899319291114807E-001;-3.266867250204086E-002;-6.350976414978504E-003;-3.375499974936247E-003;
2.414833333333334E+009;1.912530064582825E-001;-3.430826216936112E-002;-6.377137731760740E-003;-3.046125406399369E-003;
2.415000000000000E+009;1.926873326301575E-001;-3.587247431278229E-002;-6.486057303845882E-003;-2.824831986799836E-003;
2.415166666666667E+009;1.940530836582184E-001;-3.728819638490677E-002;-6.610804237425327E-003;-2.566722221672535E-003;
2.415333333333334E+009;1.952720880508423E-001;-3.845725581049919E-002;-6.632785312831402E-003;-2.220356371253729E-003;
2.415500000000000E+009;1.966314911842346E-001;-3.952708467841148E-002;-6.809932179749012E-003;-1.949385390616953E-003;
2.415666666666667E+009;1.980529874563217E-001;-4.054911807179451E-002;-6.840719841420651E-003;-1.561818644404411E-003;
2.415833333333334E+009;1.991098374128342E-001;-4.140966758131981E-002;-6.927645299583674E-003;-1.208070432767272E-003;
2.416000000000000E+009;2.002569288015366E-001;-4.201582819223404E-002;-7.010514382272959E-003;-8.104940061457455E-004;
2.416166666666667E+009;2.011948674917221E-001;-4.276522621512413E-002;-6.959723308682442E-003;-6.124060018919408E-004;
2.416333333333334E+009;2.022220790386200E-001;-4.302846267819405E-002;-7.120539434254170E-003;-2.092820650432259E-004;
2.416500000000000E+009;2.031105905771256E-001;-4.330679774284363E-002;-6.819056812673807E-003;2.161653537768871E-004;
2.416666666666667E+009;2.036475986242294E-001;-4.376226663589478E-002;-6.814268417656422E-003;5.602251621894538E-004;
2.416833333333334E+009;2.042376846075058E-001;-4.379896819591522E-002;-6.762114819139242E-003;8.204251644201577E-004;
2.417000000000000E+009;2.048109918832779E-001;-4.381323978304863E-002;-6.608162540942431E-003;1.204581698402762E-003;
2.417166666666667E+009;2.048296332359314E-001;-4.375231638550758E-002;-6.344020832329989E-003;1.469195238314569E-003;
2.417333333333334E+009;2.049944996833801E-001;-4.335410520434380E-002;-6.173796486109495E-003;1.669433899223805E-003;
2.417500000000000E+009;2.050749212503433E-001;-4.339250549674034E-002;-5.933514330536127E-003;1.805763458833098E-003;
2.417666666666667E+009;2.048599869012833E-001;-4.290498048067093E-002;-5.577517673373222E-003;2.024712041020393E-003;
2.417833333333334E+009;2.045995146036148E-001;-4.263732209801674E-002;-5.480307620018721E-003;2.214717678725720E-003;
2.418000000000000E+009;2.041690349578857E-001;-4.208784550428391E-002;-5.166169255971909E-003;2.256812760606408E-003;
2.418166666666667E+009;2.036823630332947E-001;-4.183654859662056E-002;-4.975529853254557E-003;2.407896798104048E-003;
2.418333333333334E+009;2.029989063739777E-001;-4.138233512639999E-002;-4.729380365461111E-003;2.446826081722975E-003;
2.418500000000000E+009;2.023192048072815E-001;-4.126106202602387E-002;-4.581217188388109E-003;2.382830949500203E-003;
2.418666666666667E+009;2.014071196317673E-001;-4.089132696390152E-002;-4.548879340291023E-003;2.533359453082085E-003;
2.418833333333334E+009;2.002444118261337E-001;-4.066371545195580E-002;-4.297905135899782E-003;2.692588837817311E-003;
2.419000000000000E+009;1.990617066621780E-001;-4.052779451012611E-002;-4.248121753334999E-003;2.526567550376058E-003;
2.419166666666667E+009;1.979061067104340E-001;-4.061124473810196E-002;-4.124914295971394E-003;2.693131566047669E-003;
2.419333333333334E+009;1.964117586612701E-001;-4.073661565780640E-002;-3.938097972422838E-003;2.693313406780362E-003;
2.419500000000000E+009;1.949395984411240E-001;-4.092308878898621E-002;-4.041233099997044E-003;2.794861095026135E-003;
2.419666666666667E+009;1.933834701776505E-001;-4.135571047663689E-002;-3.976271022111177E-003;2.626500558108091E-003;
2.419833333333334E+009;1.917124390602112E-001;-4.166859388351440E-002;-3.871096763759852E-003;2.940650330856443E-003;
2.420000000000000E+009;1.900335848331451E-001;-4.232272878289223E-002;-3.832447808235884E-003;2.817909466102719E-003;
2.420166666666667E+009;1.882469058036804E-001;-4.293641448020935E-002;-3.699007444083691E-003;2.961431397125125E-003;
2.420333333333334E+009;1.864590495824814E-001;-4.385711997747421E-002;-3.615555120632052E-003;3.058212576434016E-003;
2.420500000000000E+009;1.844772547483444E-001;-4.486351832747459E-002;-3.470706287771463E-003;3.160743741318584E-003;
2.420666666666667E+009;1.827766597270966E-001;-4.596202820539475E-002;-3.519269637763500E-003;3.312221728265286E-003;
2.420833333333334E+009;1.807894855737686E-001;-4.719503596425057E-002;-3.340531839057803E-003;3.467411734163761E-003;
2.421000000000000E+009;1.791305243968964E-001;-4.856054484844208E-002;-3.279072698205710E-003;3.522728104144335E-003;
2.421166666666667E+009;1.774202883243561E-001;-5.019257217645645E-002;-3.120414679870009E-003;3.478368744254112E-003;
2.421333333333334E+009;1.753886044025421E-001;-5.151885002851486E-002;-2.722510136663914E-003;3.617606824263930E-003;
2.421500000000000E+009;1.738228648900986E-001;-5.350610241293907E-002;-2.609507879242301E-003;3.620051313191652E-003;
2.421666666666667E+009;1.723399013280869E-001;-5.530530586838722E-002;-2.435053000226617E-003;3.565128659829497E-003;
2.421833333333334E+009;1.709046512842178E-001;-5.732339993119240E-002;-2.239647088572383E-003;3.589330473914743E-003;
2.422000000000000E+009;1.693276017904282E-001;-5.915541946887970E-002;-2.070847433060408E-003;3.434418467804790E-003;
2.422166666666667E+009;1.683374196290970E-001;-6.128644570708275E-002;-1.896897912956774E-003;3.297106595709920E-003;
2.422333333333334E+009;1.670578718185425E-001;-6.338386237621307E-002;-1.796306460164487E-003;3.200681647285819E-003;
2.422500000000000E+009;1.659438759088516E-001;-6.561505049467087E-002;-1.700204447843134E-003;3.121900837868452E-003;
2.422666666666667E+009;1.649412810802460E-001;-6.782966107130051E-002;-1.630502403713763E-003;3.126775380223990E-003;
2.422833333333334E+009;1.642445772886276E-001;-6.982418149709702E-002;-1.534458715468645E-003;2.816985826939344E-003;
2.423000000000000E+009;1.635300070047379E-001;-7.240806519985199E-002;-1.763412146829069E-003;2.837933832779527E-003;
2.423166666666667E+009;1.628165245056152E-001;-7.453422248363495E-002;-1.737848389893770E-003;2.756044501438737E-003;
2.423333333333334E+009;1.624933332204819E-001;-7.689627259969711E-002;-1.679478678852320E-003;2.527086297050118E-003;
2.423500000000000E+009;1.623639762401581E-001;-7.884978502988815E-002;-1.864178921096027E-003;2.541438210755587E-003;
2.423666666666667E+009;1.622787564992905E-001;-8.096044510602951E-002;-1.813129172660410E-003;2.726306673139334E-003;
2.423833333333334E+009;1.618390679359436E-001;-8.317033946514130E-002;-1.911636907607317E-003;2.659115707501769E-003;
2.424000000000000E+009;1.620668470859528E-001;-8.531811833381653E-002;-1.871173153631389E-003;2.721313387155533E-003;
2.424166666666667E+009;1.620481759309769E-001;-8.723751455545425E-002;-2.099725650623441E-003;2.819840563461185E-003;
2.424333333333334E+009;1.623574048280716E-001;-8.913841098546982E-002;-2.217391971498728E-003;2.792409388348460E-003;
2.424500000000000E+009;1.628585606813431E-001;-9.111443907022476E-002;-2.070138463750482E-003;2.904637716710568E-003;
2.424666666666667E+009;1.630596667528153E-001;-9.283687919378281E-002;-2.261043293401599E-003;3.043987555429339E-003;
2.424833333333334E+009;1.637399643659592E-001;-9.448245167732239E-002;-2.120019868016243E-003;3.170290729030967E-003;
2.425000000000000E+009;1.642665266990662E-001;-9.610779583454132E-002;-2.164302393794060E-003;3.353922627866268E-003;
2.425166666666667E+009;1.646179407835007E-001;-9.735009819269180E-002;-2.160960109904409E-003;3.398913424462080E-003;
2.425333333333334E+009;1.651924103498459E-001;-9.861785918474197E-002;-1.988941105082631E-003;3.611685475334525E-003;
2.425500000000000E+009;1.658132374286652E-001;-9.990214556455612E-002;-2.120158402249217E-003;3.877855837345123E-003;
2.425666666666667E+009;1.664410829544067E-001;-1.008644476532936E-001;-2.174507593736053E-003;3.938687033951283E-003;
2.425833333333334E+009;1.669939756393433E-001;-1.019160225987434E-001;-2.075467724353075E-003;4.020209889858961E-003;
2.426000000000000E+009;1.677560210227966E-001;-1.025912985205650E-001;-1.832797308452427E-003;4.125538282096386E-003;
2.426166666666667E+009;1.683804839849472E-001;-1.033371835947037E-001;-1.703417976386845E-003;4.486807622015476E-003;
2.426333333333334E+009;1.688307374715805E-001;-1.039927527308464E-001;-1.774572418071330E-003;4.488829523324966E-003;
2.426500000000000E+009;1.694360524415970E-001;-1.043819487094879E-001;-1.494572614319623E-003;4.723696969449520E-003;
2.426666666666667E+009;1.699764728546143E-001;-1.047979816794395E-001;-1.278876443393529E-003;4.751062020659447E-003;
2.426833333333334E+009;1.706054061651230E-001;-1.051208227872849E-001;-1.176925958134234E-003;4.942505154758692E-003;
2.427000000000000E+009;1.711351871490479E-001;-1.054254695773125E-001;-9.896447882056236E-004;4.946821834892035E-003;
2.427166666666667E+009;1.713678687810898E-001;-1.055470407009125E-001;-8.588540949858725E-004;4.946464207023382E-003;
2.427333333333334E+009;1.715415418148041E-001;-1.057843640446663E-001;-6.779680843465030E-004;5.139346234500408E-003;
2.427500000000000E+009;1.717262119054794E-001;-1.058277711272240E-001;-4.037323524244130E-004;5.129584111273289E-003;
2.427666666666667E+009;1.716762930154800E-001;-1.058960855007172E-001;-3.575662849470973E-004;5.237241275608540E-003;
