# Version 1.00
#
freq[Hz];re:Trc1_S11;im:Trc1_S11;re:Trc2_S21;im:Trc2_S21;
2.400000000000000E+009;1.519005298614502E-001;1.174254566431046E-001;-7.172841578722000E-004;8.930624462664127E-004;
2.400166666666667E+009;1.514659076929092E-001;1.153738275170326E-001;-5.367117119021714E-004;9.649019921198487E-004;
2.400333333333334E+009;1.515920460224152E-001;1.130547150969505E-001;-6.331510376185179E-004;8.391131996177137E-004;
2.400500000000000E+009;1.511141359806061E-001;1.103578805923462E-001;-5.746480892412365E-004;8.840616792440414E-004;
2.400666666666667E+009;1.511444896459580E-001;1.080243289470673E-001;-6.087361834943295E-004;1.014833454973996E-003;
2.400833333333334E+009;1.508092284202576E-001;1.050889492034912E-001;-3.378660767339170E-004;1.076341955922544E-003;
2.401000000000000E+009;1.509946733713150E-001;1.022666171193123E-001;-4.127450520172715E-004;1.078091561794281E-003;
2.401166666666667E+009;1.507949084043503E-001;9.940583258867264E-002;-3.451876109465957E-004;1.108204247429967E-003;
2.401333333333334E+009;1.510067880153656E-001;9.662021696567535E-002;-1.542404643259943E-004;1.069183228537440E-003;
2.401500000000000E+009;1.511631160974503E-001;9.347826987504959E-002;-2.507941389922053E-004;1.264193677343428E-003;
2.401666666666667E+009;1.514525115489960E-001;9.078223258256912E-002;-1.372992555843666E-004;1.111809513531625E-003;
2.401833333333334E+009;1.519459336996079E-001;8.772689849138260E-002;6.387126632034779E-005;1.287151826545596E-003;
2.402000000000000E+009;1.527497023344040E-001;8.481550961732864E-002;-6.187787221278995E-006;1.183594926260412E-003;
2.402166666666667E+009;1.535864770412445E-001;8.206070214509964E-002;4.099019497516565E-005;1.104970579035580E-003;
2.402333333333334E+009;1.545328795909882E-001;7.918761670589447E-002;1.575452042743564E-004;1.101966365240514E-003;
2.402500000000000E+009;1.556489020586014E-001;7.635422050952911E-002;3.516420547384769E-004;1.025228761136532E-003;
2.402666666666667E+009;1.568636745214462E-001;7.386440783739090E-002;2.928694011643529E-004;9.301009704358876E-004;
2.402833333333334E+009;1.584038138389587E-001;7.114837318658829E-002;4.720750439446420E-004;9.418835979886353E-004;
2.403000000000000E+009;1.598439067602158E-001;6.855197250843048E-002;4.777506692335010E-004;7.749155629426241E-004;
2.403166666666667E+009;1.619035601615906E-001;6.591780483722687E-002;4.070633440278471E-004;7.904820959083736E-004;
2.403333333333334E+009;1.634204536676407E-001;6.347578018903732E-002;3.597383620217443E-004;7.017233874648809E-004;
2.403500000000000E+009;1.653913706541061E-001;6.108967959880829E-002;5.286914529278874E-004;7.308893837034702E-004;
2.403666666666667E+009;1.674773842096329E-001;5.868828296661377E-002;5.024547572247684E-004;4.357556172180921E-004;
2.403833333333334E+009;1.695027500391007E-001;5.663778632879257E-002;4.476325702853501E-004;7.420371985062957E-004;
2.404000000000000E+009;1.711019426584244E-001;5.438243970274925E-002;3.399832057766616E-004;5.965963355265558E-004;
2.404166666666667E+009;1.731975227594376E-001;5.266500264406204E-002;3.227384586352855E-004;6.216421606950462E-004;
2.404333333333334E+009;1.751738190650940E-001;5.084552243351936E-002;3.614353190641850E-004;6.291512399911881E-004;
2.404500000000000E+009;1.772905886173248E-001;4.908329993486404E-002;4.240249691065401E-004;8.850627928040922E-004;
2.404666666666667E+009;1.791493743658066E-001;4.781381413340569E-002;3.622852382250130E-004;9.442965965718031E-004;
2.404833333333334E+009;1.812443584203720E-001;4.645823314785957E-002;3.400249697733671E-004;8.808282436802983E-004;
2.405000000000000E+009;1.829331219196320E-001;4.537300020456314E-002;4.476923495531082E-004;1.017738366499543E-003;
2.405166666666667E+009;1.847715228796005E-001;4.452540725469589E-002;5.953910876996815E-004;8.909818134270608E-004;
2.405333333333334E+009;1.866107434034348E-001;4.377490282058716E-002;7.423650240525603E-004;1.118143787607551E-003;
2.405500000000000E+009;1.883939951658249E-001;4.324983805418015E-002;9.645452955737710E-004;1.062768511474133E-003;
2.405666666666667E+009;1.900059133768082E-001;4.254207760095596E-002;9.575103758834302E-004;1.028503174893558E-003;
2.405833333333334E+009;1.916525810956955E-001;4.231807962059975E-002;1.198275364004076E-003;9.175523882731795E-004;
2.406000000000000E+009;1.929426491260529E-001;4.208486527204514E-002;1.231851987540722E-003;8.141566650010645E-004;
2.406166666666667E+009;1.944640874862671E-001;4.185734316706657E-002;1.333791413344443E-003;5.533522344194353E-004;
2.406333333333334E+009;1.958153396844864E-001;4.183856397867203E-002;1.259798533283174E-003;4.921932122670114E-004;
2.406500000000000E+009;1.967917233705521E-001;4.179446399211884E-002;1.338348258286715E-003;4.683248698711395E-004;
2.406666666666667E+009;1.978023052215576E-001;4.187771305441856E-002;1.428955001756549E-003;2.979077689815313E-004;
2.406833333333334E+009;1.988292932510376E-001;4.204622283577919E-002;1.606923295184970E-003;1.312956301262602E-004;
2.407000000000000E+009;1.992777287960053E-001;4.222691059112549E-002;1.421565539203584E-003;2.934728217951488E-005;
2.407166666666667E+009;2.000157982110977E-001;4.219694063067436E-002;1.468033529818058E-003;-2.107311593135819E-004;
2.407333333333334E+009;2.002939432859421E-001;4.244929179549217E-002;1.303310273215175E-003;-2.796821354422718E-004;
2.407500000000000E+009;2.002039551734924E-001;4.261328279972076E-002;1.379977329634130E-003;-4.052472359035164E-004;
2.407666666666667E+009;2.006751745939255E-001;4.269037395715714E-002;1.166292699053884E-003;-3.548149252310395E-004;
2.407833333333334E+009;2.001742422580719E-001;4.275906458497047E-002;1.051260507665575E-003;-5.269420798867941E-004;
2.408000000000000E+009;2.002873122692108E-001;4.276568442583084E-002;1.027481863275170E-003;-4.636307130567730E-004;
2.408166666666667E+009;1.998046487569809E-001;4.270511120557785E-002;1.047212281264365E-003;-5.592685192823410E-004;
2.408333333333334E+009;1.994651705026627E-001;4.241663590073586E-002;1.003411714918912E-003;-6.329829338937998E-004;
2.408500000000000E+009;1.987476944923401E-001;4.228433594107628E-002;6.760999094694853E-004;-5.823716637678444E-004;
2.408666666666667E+009;1.980441957712174E-001;4.199111461639404E-002;8.698539459146559E-004;-6.377610843628645E-004;
2.408833333333334E+009;1.972656846046448E-001;4.140786081552506E-002;8.270828984677792E-004;-6.346884765662253E-004;
2.409000000000000E+009;1.963234841823578E-001;4.069527983665466E-002;7.487285765819252E-004;-7.597747026011348E-004;
2.409166666666667E+009;1.951805353164673E-001;3.995860368013382E-002;7.043649093247950E-004;-7.702013826929033E-004;
2.409333333333334E+009;1.941540241241455E-001;3.920693695545197E-002;7.300617289729416E-004;-7.938179769553244E-004;
2.409500000000000E+009;1.926908046007156E-001;3.827209025621414E-002;7.430326077155769E-004;-7.834093412384391E-004;
2.409666666666667E+009;1.915883272886276E-001;3.703160583972931E-002;6.137575837783516E-004;-9.555795113556087E-004;
2.409833333333334E+009;1.902021020650864E-001;3.572823107242584E-002;4.922608495689929E-004;-8.973974036052823E-004;
2.410000000000000E+009;1.890154927968979E-001;3.440986201167107E-002;3.407216281630099E-004;-9.490580996498466E-004;
2.410166666666667E+009;1.876744925975800E-001;3.257059678435326E-002;2.401929523330182E-004;-9.750527096912265E-004;
2.410333333333334E+009;1.863625049591065E-001;3.106580302119255E-002;2.661799080669880E-004;-9.535790886729956E-004;
2.410500000000000E+009;1.849532723426819E-001;2.933569066226482E-002;8.463125413982198E-005;-1.061741495504975E-003;
2.410666666666667E+009;1.838791519403458E-001;2.716440893709660E-002;1.012875873129815E-004;-1.096537918783724E-003;
2.410833333333334E+009;1.828967779874802E-001;2.508578635752201E-002;1.162440385087393E-004;-1.033218111842871E-003;
2.411000000000000E+009;1.818610429763794E-001;2.288142405450344E-002;-1.190541879623197E-004;-1.120791421271861E-003;
2.411166666666667E+009;1.808330863714218E-001;2.076873555779457E-002;-2.039788087131456E-004;-9.702752577140927E-004;
2.411333333333334E+009;1.799391061067581E-001;1.828718185424805E-002;-3.374407242517918E-004;-9.923541219905019E-004;
2.411500000000000E+009;1.792414784431458E-001;1.576325111091137E-002;-5.029095918871462E-004;-7.059808121994138E-004;
2.411666666666667E+009;1.787218153476715E-001;1.335718482732773E-002;-4.821260517928749E-004;-6.619420601055026E-004;
2.411833333333334E+009;1.780230104923248E-001;1.087790261954069E-002;-3.802104329224676E-004;-6.846100441180170E-004;
2.412000000000000E+009;1.779161989688873E-001;8.147282525897026E-003;-4.049994458910078E-004;-4.946037661284208E-004;
2.412166666666667E+009;1.777372360229492E-001;5.633045453578234E-003;-4.718801937997341E-004;-3.028306819032878E-004;
2.412333333333334E+009;1.778400987386704E-001;3.000984666869044E-003;-4.987607826478779E-004;-3.130641125608236E-004;
2.412500000000000E+009;1.778849810361862E-001;3.411474463064224E-004;-3.310941683594137E-004;-2.083392027998343E-004;
2.412666666666667E+009;1.782664209604263E-001;-2.379050711169839E-003;-3.454976831562817E-004;-2.551295619923621E-004;
2.412833333333334E+009;1.787903159856796E-001;-5.006338935345411E-003;-3.703850379679352E-004;-2.032941265497357E-004;
2.413000000000000E+009;1.793545335531235E-001;-7.623748388141394E-003;-2.709070686250925E-004;-1.282137818634510E-004;
2.413166666666667E+009;1.798719465732575E-001;-1.018703822046518E-002;-3.284160047769547E-004;-9.346572915092111E-005;
2.413333333333334E+009;1.808866113424301E-001;-1.279355399310589E-002;-2.635616692714393E-004;-2.057996316580102E-004;
2.413500000000000E+009;1.816381067037582E-001;-1.521679013967514E-002;-2.024138957494870E-004;-1.201425693579949E-004;
2.413666666666667E+009;1.827954798936844E-001;-1.769992709159851E-002;-2.569012867752463E-004;-6.883624882902950E-005;
2.413833333333334E+009;1.837670207023621E-001;-1.984585449099541E-002;-8.035341306822375E-005;-2.872593722713646E-005;
2.414000000000000E+009;1.849390566349030E-001;-2.213033847510815E-002;-2.941153652500361E-004;-1.314721157541499E-004;
2.414166666666667E+009;1.861481964588165E-001;-2.418975159525871E-002;-1.916278415592387E-004;-7.840786565793678E-006;
2.414333333333334E+009;1.873352527618408E-001;-2.641054242849350E-002;-2.163820317946374E-004;-6.656380719505251E-005;
2.414500000000000E+009;1.886944472789764E-001;-2.802185900509358E-002;-1.638246612856165E-004;1.558791263960302E-004;
2.414666666666667E+009;1.900113672018051E-001;-2.978131547570229E-002;-2.358734345762059E-004;7.414381980197504E-005;
2.414833333333334E+009;1.913127303123474E-001;-3.132181987166405E-002;-1.541194942547008E-004;-4.658965553971939E-005;
2.415000000000000E+009;1.925213336944580E-001;-3.291396424174309E-002;-1.013391956803389E-004;2.042755659203976E-004;
2.415166666666667E+009;1.940092444419861E-001;-3.417742252349854E-002;-9.925266203936189E-005;1.432933640899137E-004;
2.415333333333334E+009;1.953429728746414E-001;-3.535605967044830E-002;-1.139763699029572E-004;1.613740605534986E-004;
2.415500000000000E+009;1.966967582702637E-001;-3.607069328427315E-002;7.030045526335016E-005;2.276157756568864E-004;
2.415666666666667E+009;1.978840976953507E-001;-3.714232891798019E-002;1.218871038872749E-004;-4.312957753427327E-005;
2.415833333333334E+009;1.989578902721405E-001;-3.782950341701508E-002;3.313973720651120E-004;-1.631274062674493E-004;
2.416000000000000E+009;1.999324560165405E-001;-3.856249526143074E-002;1.997209328692406E-004;-6.745177961420268E-005;
2.416166666666667E+009;2.009478360414505E-001;-3.903887793421745E-002;4.215723020024598E-004;-9.717217471916229E-005;
2.416333333333334E+009;2.018411904573441E-001;-3.930754959583283E-002;4.114683542866260E-004;-1.271833170903847E-004;
2.416500000000000E+009;2.026537507772446E-001;-3.952615708112717E-002;4.814631538465619E-004;-2.336431498406455E-004;
2.416666666666667E+009;2.031019926071167E-001;-3.985003381967545E-002;4.737543640658259E-004;-2.984156890306622E-004;
2.416833333333334E+009;2.035751044750214E-001;-3.975814208388329E-002;4.861837078351528E-004;-2.819503133650869E-004;
2.417000000000000E+009;2.040000408887863E-001;-3.990587964653969E-002;3.119759203400463E-004;-5.441416869871318E-004;
2.417166666666667E+009;2.039898335933685E-001;-3.941263258457184E-002;4.315609694458544E-004;-5.465323338285089E-004;
2.417333333333334E+009;2.039766311645508E-001;-3.904230520129204E-002;2.928760659415275E-004;-6.650758441537619E-004;
2.417500000000000E+009;2.040205746889114E-001;-3.883459419012070E-002;1.454613084206358E-004;-7.431190460920334E-004;
2.417666666666667E+009;2.037763893604279E-001;-3.840295597910881E-002;2.373557654209435E-004;-8.960181730799377E-004;
2.417833333333334E+009;2.035031765699387E-001;-3.797130659222603E-002;-2.983551166835241E-005;-8.209969964809716E-004;
2.418000000000000E+009;2.032032608985901E-001;-3.751555085182190E-002;-2.300101477885619E-004;-9.281045640818775E-004;
2.418166666666667E+009;2.025606632232666E-001;-3.708140552043915E-002;-2.335487661184743E-004;-1.025446224957705E-003;
2.418333333333334E+009;2.019142061471939E-001;-3.661885112524033E-002;-4.929644055664539E-004;-8.675851859152317E-004;
2.418500000000000E+009;2.012137174606323E-001;-3.634404018521309E-002;-5.443540867418051E-004;-7.451118435710669E-004;
2.418666666666667E+009;2.003103494644165E-001;-3.596458584070206E-002;-6.966139771975577E-004;-5.483673885464668E-004;
2.418833333333334E+009;1.991532444953919E-001;-3.589341789484024E-002;-6.577394087798894E-004;-7.405959768220782E-004;
2.419000000000000E+009;1.980470269918442E-001;-3.587900847196579E-002;-7.760598091408610E-004;-5.877025541849434E-004;
2.419166666666667E+009;1.969533562660217E-001;-3.581712767481804E-002;-8.734716684557498E-004;-5.622865865007043E-004;
2.419333333333334E+009;1.956472992897034E-001;-3.607615828514099E-002;-6.834755768068135E-004;-3.191939031239599E-004;
2.419500000000000E+009;1.941540390253067E-001;-3.620499372482300E-002;-9.186579845845699E-004;-3.065769560635090E-004;
2.419666666666667E+009;1.925941556692123E-001;-3.686866164207459E-002;-9.999850299209356E-004;-2.087928151013330E-004;
2.419833333333334E+009;1.909063160419464E-001;-3.710687533020973E-002;-7.390081882476807E-004;-6.748895975761116E-005;
2.420000000000000E+009;1.893614679574966E-001;-3.781907260417938E-002;-7.838488090783358E-004;-8.260849426733330E-005;
2.420166666666667E+009;1.875568926334381E-001;-3.860905766487122E-002;-7.726291660219431E-004;-7.533500320278108E-005;
2.420333333333334E+009;1.858810484409332E-001;-3.958176821470261E-002;-8.280960028059781E-004;-7.081770309014246E-005;
2.420500000000000E+009;1.839695274829865E-001;-4.063599556684494E-002;-8.589148055762053E-004;1.556961360620335E-004;
2.420666666666667E+009;1.822603195905685E-001;-4.181241989135742E-002;-8.172497036866844E-004;-5.488481474458240E-005;
2.420833333333334E+009;1.802599132061005E-001;-4.316800832748413E-002;-8.872544276528060E-004;2.605946247058455E-005;
2.421000000000000E+009;1.788322031497955E-001;-4.466881230473518E-002;-8.726800442673266E-004;2.312050200998783E-004;
2.421166666666667E+009;1.770468950271606E-001;-4.610425606369972E-002;-9.064410114660859E-004;2.320296625839546E-004;
2.421333333333334E+009;1.752224862575531E-001;-4.754213616251946E-002;-9.219599305652082E-004;3.423120360821486E-004;
2.421500000000000E+009;1.736412048339844E-001;-4.942790791392326E-002;-1.161350286565721E-003;2.446139988023788E-004;
2.421666666666667E+009;1.721977293491364E-001;-5.136688798666000E-002;-1.239397795870900E-003;5.146654439158738E-004;
2.421833333333334E+009;1.708046197891235E-001;-5.317934975028038E-002;-1.163652748800814E-003;6.443067104555666E-004;
2.422000000000000E+009;1.695804297924042E-001;-5.511541664600372E-002;-1.141342567279935E-003;7.233924116007984E-004;
2.422166666666667E+009;1.683498024940491E-001;-5.701671168208122E-002;-1.030837418511510E-003;9.510901290923357E-004;
2.422333333333334E+009;1.672903001308441E-001;-5.927101895213127E-002;-1.025193720124662E-003;1.089011202566326E-003;
2.422500000000000E+009;1.663148403167725E-001;-6.141497939825058E-002;-8.274303399957717E-004;1.076148240827024E-003;
2.422666666666667E+009;1.654376238584518E-001;-6.344748288393021E-002;-7.214734214358032E-004;1.315818866714835E-003;
2.422833333333334E+009;1.647191345691681E-001;-6.568785011768341E-002;-6.306064897216857E-004;1.333579770289362E-003;
2.423000000000000E+009;1.639865785837174E-001;-6.791103631258011E-002;-3.651175065897405E-004;1.611139974556863E-003;
2.423166666666667E+009;1.635331213474274E-001;-6.978923082351685E-002;-2.834240440279245E-004;1.506285276263952E-003;
2.423333333333334E+009;1.633556038141251E-001;-7.220042496919632E-002;-1.307830971200019E-004;1.544132479466498E-003;
2.423500000000000E+009;1.632798165082932E-001;-7.426126301288605E-002;1.287655177293345E-004;1.515308744274080E-003;
2.423666666666667E+009;1.634308099746704E-001;-7.642823457717896E-002;4.570134915411472E-004;1.545969047583640E-003;
2.423833333333334E+009;1.630826443433762E-001;-7.827313244342804E-002;4.113618924748153E-004;1.437268918380141E-003;
2.424000000000000E+009;1.632561385631561E-001;-8.029224723577499E-002;4.535870102699846E-004;1.417192397639155E-003;
2.424166666666667E+009;1.634287685155869E-001;-8.202438801527023E-002;7.672924548387528E-004;1.396186999045312E-003;
2.424333333333334E+009;1.638363450765610E-001;-8.397217839956284E-002;8.382058585993946E-004;9.976689470931888E-004;
2.424500000000000E+009;1.641841679811478E-001;-8.581004291772842E-002;9.252537274733186E-004;1.071030506864190E-003;
2.424666666666667E+009;1.645300686359406E-001;-8.740027248859406E-002;9.898911230266094E-004;1.083583454601467E-003;
2.424833333333334E+009;1.651549190282822E-001;-8.896142989397049E-002;1.023036777041853E-003;7.541591185145080E-004;
2.425000000000000E+009;1.657436937093735E-001;-9.032382071018219E-002;1.220518839545548E-003;6.776483496651053E-004;
2.425166666666667E+009;1.664161980152130E-001;-9.161447733640671E-002;1.223383471369743E-003;6.627816474065185E-004;
2.425333333333334E+009;1.669998317956924E-001;-9.270916134119034E-002;1.177179976366460E-003;7.105354452505708E-004;
2.425500000000000E+009;1.676656156778336E-001;-9.394826740026474E-002;1.175196608528495E-003;4.589394084177911E-004;
2.425666666666667E+009;1.682359576225281E-001;-9.473241865634918E-002;1.101388013921678E-003;2.891429176088423E-004;
2.425833333333334E+009;1.689721494913101E-001;-9.563796967267990E-002;1.200255588628352E-003;1.975776249310002E-004;
2.426000000000000E+009;1.695777475833893E-001;-9.630718827247620E-002;1.265549683012068E-003;2.637627221702132E-005;
2.426166666666667E+009;1.703829467296600E-001;-9.694338589906693E-002;1.349046011455357E-003;-4.057224941789173E-006;
2.426333333333334E+009;1.707461774349213E-001;-9.769012033939362E-002;1.220821635797620E-003;5.157011401024647E-006;
2.426500000000000E+009;1.715967059135437E-001;-9.802026301622391E-002;1.204917905852199E-003;-1.478068297728896E-004;
2.426666666666667E+009;1.722331643104553E-001;-9.833418577909470E-002;1.223960076458752E-003;-3.388637560419738E-004;
2.426833333333334E+009;1.728221476078033E-001;-9.867657721042633E-002;1.262795994989574E-003;-2.538220724090934E-004;
2.427000000000000E+009;1.731300055980682E-001;-9.895384311676025E-002;1.195738208480179E-003;-4.786969511769712E-004;
2.427166666666667E+009;1.735436171293259E-001;-9.914428740739822E-002;1.107515301555395E-003;-4.264508315827698E-004;
2.427333333333334E+009;1.738256961107254E-001;-9.941270202398300E-002;1.166746951639652E-003;-5.627369973808527E-004;
2.427500000000000E+009;1.738252192735672E-001;-9.956465661525726E-002;1.166276400908828E-003;-5.769705167040229E-004;
2.427666666666667E+009;1.738258302211762E-001;-9.959946572780609E-002;9.545516804791987E-004;-7.642443524673581E-004;
2.427833333333334E+009;1.738123297691345E-001;-9.970035403966904E-002;8.931678021326661E-004;-9.124870994128287E-004;
