# Version 1.00
#
freq[Hz];re:Trc1_S11;im:Trc1_S11;re:Trc2_S21;im:Trc2_S21;
2.400000000000000E+009;1.520034074783325E-001;1.173839941620827E-001;-7.521924562752247E-004;9.658837225288153E-004;
2.400166666666667E+009;1.514942944049835E-001;1.150942817330360E-001;-6.884522153995931E-004;1.012190594337881E-003;
2.400333333333334E+009;1.513457894325256E-001;1.128278151154518E-001;-6.260727532207966E-004;1.030062208883464E-003;
2.400500000000000E+009;1.512068063020706E-001;1.103611811995506E-001;-5.174074904061854E-004;1.015766873024404E-003;
2.400666666666667E+009;1.509762555360794E-001;1.079858019948006E-001;-4.609992611221969E-004;9.944015182554722E-004;
2.400833333333334E+009;1.509386748075485E-001;1.049374714493752E-001;-4.801900940947235E-004;1.135589554905891E-003;
2.401000000000000E+009;1.507760137319565E-001;1.022583916783333E-001;-2.630269154906273E-004;1.132954377681017E-003;
2.401166666666667E+009;1.506403833627701E-001;9.938896447420120E-002;-2.768506819847971E-004;1.060107722878456E-003;
2.401333333333334E+009;1.509116590023041E-001;9.663788974285126E-002;-2.040426625171676E-004;1.226428546942771E-003;
2.401500000000000E+009;1.511829942464829E-001;9.358135610818863E-002;-2.127404732163996E-004;1.096077496185899E-003;
2.401666666666667E+009;1.513857394456863E-001;9.070792794227600E-002;-9.926020720740780E-005;1.100407564081252E-003;
2.401833333333334E+009;1.517757773399353E-001;8.782040327787399E-002;3.297308012406575E-006;1.135202706791461E-003;
2.402000000000000E+009;1.527633219957352E-001;8.468418568372726E-002;3.837843541987240E-005;1.156023470684886E-003;
2.402166666666667E+009;1.533318608999252E-001;8.220683038234711E-002;1.484055974287912E-004;9.628896950744093E-004;
2.402333333333334E+009;1.544121056795120E-001;7.908497005701065E-002;1.226338790729642E-004;1.096755033358932E-003;
2.402500000000000E+009;1.556053459644318E-001;7.645397633314133E-002;3.546221414580941E-004;9.827485773712397E-004;
2.402666666666667E+009;1.568873524665833E-001;7.389109581708908E-002;3.033809189219028E-004;9.867495391517878E-004;
2.402833333333334E+009;1.583009213209152E-001;7.097396999597549E-002;2.964507439173758E-004;7.894830778241158E-004;
2.403000000000000E+009;1.599129736423492E-001;6.830938905477524E-002;4.171062319073826E-004;8.943794528022409E-004;
2.403166666666667E+009;1.617634892463684E-001;6.616084277629852E-002;5.910757463425398E-004;8.066285517998040E-004;
2.403333333333334E+009;1.633459180593491E-001;6.350326538085938E-002;3.519475576467812E-004;7.268070476129651E-004;
2.403500000000000E+009;1.655807197093964E-001;6.111402064561844E-002;3.192535077687353E-004;7.587081636302173E-004;
2.403666666666667E+009;1.674958467483521E-001;5.880954861640930E-002;5.333521985448897E-004;8.786529651843011E-004;
2.403833333333334E+009;1.694186329841614E-001;5.670432746410370E-002;3.298119700048119E-004;5.433170590549707E-004;
2.404000000000000E+009;1.711454093456268E-001;5.443595722317696E-002;3.284730482846499E-004;7.182777044363320E-004;
2.404166666666667E+009;1.732799559831619E-001;5.275523290038109E-002;2.802085655275732E-004;6.982706254348159E-004;
2.404333333333334E+009;1.752221286296845E-001;5.083578452467918E-002;4.260521964170039E-004;6.634586025029421E-004;
2.404500000000000E+009;1.771668344736099E-001;4.923611134290695E-002;2.924742293544114E-004;9.801830165088177E-004;
2.404666666666667E+009;1.791358441114426E-001;4.772612079977989E-002;2.822086098603904E-004;6.608467083424330E-004;
2.404833333333334E+009;1.812575906515122E-001;4.641107842326164E-002;3.514995623845607E-004;1.095295185223222E-003;
2.405000000000000E+009;1.829015314579010E-001;4.548133164644241E-002;3.492189280223101E-004;1.075574546121061E-003;
2.405166666666667E+009;1.848663985729218E-001;4.448139294981957E-002;4.794735868927091E-004;1.240293262526393E-003;
2.405333333333334E+009;1.866438090801239E-001;4.371800646185875E-002;6.564926006831229E-004;1.145419431850314E-003;
2.405500000000000E+009;1.883606463670731E-001;4.317788779735565E-002;8.905247668735683E-004;9.659374481998384E-004;
2.405666666666667E+009;1.899814605712891E-001;4.252426698803902E-002;8.863130351528525E-004;1.013791537843645E-003;
2.405833333333334E+009;1.915342062711716E-001;4.239060357213020E-002;1.226238906383514E-003;8.429005392827094E-004;
2.406000000000000E+009;1.930186897516251E-001;4.195379465818405E-002;1.059359405189753E-003;7.702792063355446E-004;
2.406166666666667E+009;1.945645362138748E-001;4.173779487609863E-002;1.338516594842076E-003;6.887998897582293E-004;
2.406333333333334E+009;1.957027614116669E-001;4.168679937720299E-002;1.404183800332248E-003;5.619318108074367E-004;
2.406500000000000E+009;1.968258917331696E-001;4.185606911778450E-002;1.384509028866887E-003;4.139020165894181E-004;
2.406666666666667E+009;1.978261321783066E-001;4.176243767142296E-002;1.258414005860686E-003;3.468156792223454E-004;
2.406833333333334E+009;1.987987607717514E-001;4.180470854043961E-002;1.310086809098721E-003;8.606055780546740E-005;
2.407000000000000E+009;1.992756873369217E-001;4.227073490619659E-002;1.407331321388483E-003;6.538014713441953E-005;
2.407166666666667E+009;1.999697536230087E-001;4.203356429934502E-002;1.428782707080245E-003;-1.273555244551972E-004;
2.407333333333334E+009;2.001894861459732E-001;4.222601652145386E-002;1.139424392022193E-003;-2.061446284642443E-004;
2.407500000000000E+009;2.004299163818359E-001;4.251841828227043E-002;1.426297123543918E-003;-3.246010455768555E-004;
2.407666666666667E+009;2.005669772624970E-001;4.266400262713432E-002;1.144159701652825E-003;-3.140742192044854E-004;
2.407833333333334E+009;2.002317905426025E-001;4.277592897415161E-002;1.068987650796771E-003;-5.672995466738939E-004;
2.408000000000000E+009;2.003217190504074E-001;4.275270178914070E-002;9.792917408049107E-004;-4.408882814459503E-004;
2.408166666666667E+009;1.998293101787567E-001;4.267995059490204E-002;9.781226981431246E-004;-4.732422821689397E-004;
2.408333333333334E+009;1.994161754846573E-001;4.241012036800385E-002;8.344507659785450E-004;-5.660281749442220E-004;
2.408500000000000E+009;1.987421661615372E-001;4.224966466426849E-002;8.223854238167405E-004;-5.166006740182638E-004;
2.408666666666667E+009;1.981126517057419E-001;4.199426248669624E-002;8.964570006355643E-004;-5.205640918575227E-004;
2.408833333333334E+009;1.973041146993637E-001;4.148992523550987E-002;8.801129879429936E-004;-6.559860194101930E-004;
2.409000000000000E+009;1.962606608867645E-001;4.070337116718292E-002;7.076116744428873E-004;-7.386983488686383E-004;
2.409166666666667E+009;1.950641572475433E-001;4.004274308681488E-002;6.684559048153460E-004;-8.206453640013933E-004;
2.409333333333334E+009;1.939736455678940E-001;3.930027782917023E-002;6.386798922903836E-004;-8.309783879667521E-004;
2.409500000000000E+009;1.926570683717728E-001;3.819968923926354E-002;6.110611138865352E-004;-8.544523152522743E-004;
2.409666666666667E+009;1.914992183446884E-001;3.705827891826630E-002;6.097609875723720E-004;-9.119174210354686E-004;
2.409833333333334E+009;1.900581568479538E-001;3.577272221446037E-002;5.082924035377801E-004;-9.234914323315024E-004;
2.410000000000000E+009;1.887770444154739E-001;3.437549248337746E-002;4.997741780243814E-004;-8.012955076992512E-004;
2.410166666666667E+009;1.875675171613693E-001;3.280351683497429E-002;4.036831378471106E-004;-1.045222277753055E-003;
2.410333333333334E+009;1.861859112977982E-001;3.111300617456436E-002;3.161078493576497E-004;-9.070278028957546E-004;
2.410500000000000E+009;1.849010437726975E-001;2.935622446238995E-002;2.204774064011872E-004;-1.079279696568847E-003;
2.410666666666667E+009;1.838176995515823E-001;2.712384797632694E-002;1.229732297360897E-004;-1.074895961210132E-003;
2.410833333333334E+009;1.828658580780029E-001;2.506962418556213E-002;-1.264220773009583E-004;-1.016868860460818E-003;
2.411000000000000E+009;1.818296760320664E-001;2.282988838851452E-002;1.573284134792630E-005;-9.338357485830784E-004;
2.411166666666667E+009;1.806761920452118E-001;2.081343717873097E-002;-2.333347656531259E-004;-8.921145345084369E-004;
2.411333333333334E+009;1.800024658441544E-001;1.823525503277779E-002;-1.689052587607876E-004;-8.201309246942401E-004;
2.411500000000000E+009;1.793306916952133E-001;1.588879898190498E-002;-2.927520254161209E-004;-8.279626490548253E-004;
2.411666666666667E+009;1.787445843219757E-001;1.352594140917063E-002;-4.596459912136197E-004;-6.134505383670330E-004;
2.411833333333334E+009;1.781997829675674E-001;1.085573714226484E-002;-2.942075370810926E-004;-7.121807429939508E-004;
2.412000000000000E+009;1.779277473688126E-001;8.083398453891277E-003;-4.393902781885117E-004;-5.148566560819745E-004;
2.412166666666667E+009;1.778426915407181E-001;5.717888474464417E-003;-4.563182883430272E-004;-3.957785083912313E-004;
2.412333333333334E+009;1.777829974889755E-001;2.889240626245737E-003;-5.267009255476296E-004;-3.849152417387813E-004;
2.412500000000000E+009;1.778673380613327E-001;3.395192034076899E-004;-3.955129941459745E-004;-3.026133053936064E-004;
2.412666666666667E+009;1.780963093042374E-001;-2.345294691622257E-003;-4.405691579449922E-004;-1.386341318720952E-004;
2.412833333333334E+009;1.787592172622681E-001;-4.991833586245775E-003;-4.200060211587697E-004;-1.552363537484780E-004;
2.413000000000000E+009;1.793247908353806E-001;-7.630945183336735E-003;-2.218173904111609E-004;-1.778325968189165E-004;
2.413166666666667E+009;1.799207031726837E-001;-9.998449124395847E-003;-1.992835605051369E-004;-1.070986763807014E-004;
2.413333333333334E+009;1.808463335037231E-001;-1.260218583047390E-002;-1.755706762196496E-004;-9.994127321988344E-005;
2.413500000000000E+009;1.814845651388168E-001;-1.511862315237522E-002;-1.650349295232445E-004;-8.439749944955111E-005;
2.413666666666667E+009;1.826360523700714E-001;-1.767144910991192E-002;-1.462367363274097E-004;-1.821777550503612E-004;
2.413833333333334E+009;1.837333589792252E-001;-1.989129930734634E-002;-2.994886599481106E-004;-2.035620127571747E-004;
2.414000000000000E+009;1.848557889461517E-001;-2.219830267131329E-002;-2.582433808129281E-004;-1.417856110492721E-004;
2.414166666666667E+009;1.862418651580811E-001;-2.422347106039524E-002;-1.666535390540958E-004;2.736639726208523E-005;
2.414333333333334E+009;1.873053312301636E-001;-2.650674618780613E-002;-1.779394951881841E-004;-1.305021305597620E-005;
2.414500000000000E+009;1.885252445936203E-001;-2.810820937156677E-002;-1.822260819608346E-004;-5.592816523858346E-005;
2.414666666666667E+009;1.898881494998932E-001;-2.987139299511910E-002;-2.847816213034093E-004;3.461675441940315E-005;
2.414833333333334E+009;1.913179308176041E-001;-3.140146657824516E-002;-1.825314975576475E-004;1.033118605846539E-004;
2.415000000000000E+009;1.924117356538773E-001;-3.288618102669716E-002;-9.962618787540123E-005;1.095350598916411E-004;
2.415166666666667E+009;1.940478831529617E-001;-3.424473106861115E-002;2.053892058029305E-005;1.232144859386608E-004;
2.415333333333334E+009;1.952487677335739E-001;-3.534142673015595E-002;-6.652993033640087E-005;1.455346773582278E-005;
2.415500000000000E+009;1.965801268815994E-001;-3.609489649534226E-002;6.983953790040687E-005;9.988633973989636E-005;
2.415666666666667E+009;1.977777779102325E-001;-3.706456348299980E-002;2.007795847021043E-004;-1.388329383189557E-005;
2.415833333333334E+009;1.988664567470551E-001;-3.781652450561523E-002;1.838475582189858E-004;1.574202033225447E-004;
2.416000000000000E+009;1.999168545007706E-001;-3.836439549922943E-002;3.427390183787793E-004;-7.372887193923816E-005;
2.416166666666667E+009;2.009543329477310E-001;-3.899886459112167E-002;4.591163888107985E-004;-1.291060470975936E-004;
2.416333333333334E+009;2.018445581197739E-001;-3.936425223946571E-002;4.123278195038438E-004;-2.442401018925011E-004;
2.416500000000000E+009;2.025386840105057E-001;-3.947583958506584E-002;4.377103177830577E-004;-2.604030014481396E-004;
2.416666666666667E+009;2.032004892826080E-001;-3.982319682836533E-002;3.033546672668308E-004;-2.175462141167373E-004;
2.416833333333334E+009;2.036019116640091E-001;-3.971066698431969E-002;3.395772364456207E-004;-5.028484738431871E-004;
2.417000000000000E+009;2.040434777736664E-001;-3.980341181159020E-002;3.890942607540637E-004;-4.920914070680738E-004;
2.417166666666667E+009;2.039777040481567E-001;-3.946271538734436E-002;3.289727901574224E-004;-6.205140962265432E-004;
2.417333333333334E+009;2.039915919303894E-001;-3.904616832733154E-002;1.648468460189179E-004;-8.369063725695014E-004;
2.417500000000000E+009;2.039276510477066E-001;-3.890735656023026E-002;1.834514259826392E-004;-8.488334715366364E-004;
2.417666666666667E+009;2.037714272737503E-001;-3.846374526619911E-002;1.150834868894890E-004;-8.914782083593309E-004;
2.417833333333334E+009;2.035261392593384E-001;-3.788336738944054E-002;5.948753823759034E-005;-9.327841107733548E-004;
2.418000000000000E+009;2.030520737171173E-001;-3.733482211828232E-002;-1.496037875767797E-004;-8.697597659192979E-004;
2.418166666666667E+009;2.025468796491623E-001;-3.706059604883194E-002;-3.728571464307606E-004;-8.820579387247562E-004;
2.418333333333334E+009;2.019137591123581E-001;-3.657491132616997E-002;-5.004319245927036E-004;-8.839352522045374E-004;
2.418500000000000E+009;2.010707408189774E-001;-3.633916005492210E-002;-5.094599328003824E-004;-8.040466345846653E-004;
2.418666666666667E+009;2.003939598798752E-001;-3.591695427894592E-002;-8.270398830063641E-004;-7.248004549182952E-004;
2.418833333333334E+009;1.992152035236359E-001;-3.584536537528038E-002;-6.925589987076819E-004;-6.776996306143701E-004;
2.419000000000000E+009;1.980458945035934E-001;-3.566937521100044E-002;-7.807747460901737E-004;-6.296420469880104E-004;
2.419166666666667E+009;1.968587189912796E-001;-3.574542328715324E-002;-8.363932720385492E-004;-5.084386211819947E-004;
2.419333333333334E+009;1.954520046710968E-001;-3.604171425104141E-002;-8.646556525491178E-004;-3.334049251861870E-004;
2.419500000000000E+009;1.940858662128449E-001;-3.610331565141678E-002;-8.836791967041791E-004;-3.030539082828909E-004;
2.419666666666667E+009;1.925786733627319E-001;-3.670008108019829E-002;-7.903952500782907E-004;-7.767238275846466E-005;
2.419833333333334E+009;1.908450573682785E-001;-3.699598461389542E-002;-9.038505959324539E-004;-1.153307966887951E-004;
2.420000000000000E+009;1.893078237771988E-001;-3.770899027585983E-002;-8.916332735680044E-004;-1.201495979330503E-004;
2.420166666666667E+009;1.875310093164444E-001;-3.852561488747597E-002;-7.189157186076045E-004;-5.879803575226106E-005;
2.420333333333334E+009;1.858904808759689E-001;-3.948723897337914E-002;-8.950108895078301E-004;1.412269193679094E-004;
2.420500000000000E+009;1.840130239725113E-001;-4.059366509318352E-002;-9.259308571927249E-004;1.056643013725989E-004;
2.420666666666667E+009;1.823237687349320E-001;-4.164073243737221E-002;-8.529003825969994E-004;-1.493047057010699E-005;
2.420833333333334E+009;1.804190427064896E-001;-4.299487546086311E-002;-9.215970057994127E-004;-9.559676982462406E-005;
2.421000000000000E+009;1.786723583936691E-001;-4.450339451432228E-002;-1.052158302627504E-003;-6.744196980434936E-006;
2.421166666666667E+009;1.769891083240509E-001;-4.592011868953705E-002;-1.008704653941095E-003;9.978782327380031E-005;
2.421333333333334E+009;1.751879453659058E-001;-4.747496172785759E-002;-1.068711630068719E-003;2.007003495236859E-004;
2.421500000000000E+009;1.735386997461319E-001;-4.944477975368500E-002;-1.190899638459086E-003;3.233092138543725E-004;
2.421666666666667E+009;1.720959693193436E-001;-5.133150890469551E-002;-1.078444649465382E-003;5.544264568015933E-004;
2.421833333333334E+009;1.707628816366196E-001;-5.320053920149803E-002;-1.098923385143280E-003;7.373471744358540E-004;
2.422000000000000E+009;1.693342626094818E-001;-5.490759015083313E-002;-1.032491913065314E-003;9.113679989241064E-004;
2.422166666666667E+009;1.684496700763702E-001;-5.715927109122276E-002;-1.099645160138607E-003;8.810702129267156E-004;
2.422333333333334E+009;1.670885086059570E-001;-5.919928848743439E-002;-8.891868055798113E-004;9.489908115938306E-004;
2.422500000000000E+009;1.661760360002518E-001;-6.124607846140862E-002;-8.803284727036953E-004;1.078587723895907E-003;
2.422666666666667E+009;1.653513908386231E-001;-6.324071437120438E-002;-7.869787514209747E-004;1.414722297340632E-003;
2.422833333333334E+009;1.647360026836395E-001;-6.557603180408478E-002;-4.336731799412519E-004;1.369777601212263E-003;
2.423000000000000E+009;1.639312207698822E-001;-6.779302656650543E-002;-3.054615226574242E-004;1.402239431627095E-003;
2.423166666666667E+009;1.635541915893555E-001;-6.979726999998093E-002;-1.146901631727815E-004;1.442646491341293E-003;
2.423333333333334E+009;1.633339822292328E-001;-7.209103554487228E-002;7.429812831105664E-005;1.508398680016398E-003;
2.423500000000000E+009;1.632424741983414E-001;-7.395543903112412E-002;9.853692608885467E-005;1.543825375847518E-003;
2.423666666666667E+009;1.631916016340256E-001;-7.607210427522659E-002;4.905897076241672E-004;1.474473974667490E-003;
2.423833333333334E+009;1.631063520908356E-001;-7.807801663875580E-002;4.961563972756267E-004;1.311809523031116E-003;
2.424000000000000E+009;1.632897704839706E-001;-8.031437546014786E-002;6.118456367403269E-004;1.280426280573010E-003;
2.424166666666667E+009;1.634889841079712E-001;-8.207029104232788E-002;6.051520467735827E-004;1.185484929010272E-003;
2.424333333333334E+009;1.636601686477661E-001;-8.375813066959381E-002;9.101335890591145E-004;1.178881502710283E-003;
2.424500000000000E+009;1.641662269830704E-001;-8.577707409858704E-002;9.481319575570524E-004;1.072507933713496E-003;
2.424666666666667E+009;1.644983738660812E-001;-8.734663575887680E-002;1.036923145875335E-003;1.020111842080951E-003;
2.424833333333334E+009;1.652345359325409E-001;-8.887368440628052E-002;1.180600724183023E-003;8.719287579879165E-004;
2.425000000000000E+009;1.658335924148560E-001;-9.035150706768036E-002;1.205757609568536E-003;6.752358749508858E-004;
2.425166666666667E+009;1.662835925817490E-001;-9.156496077775955E-002;1.107298769056797E-003;6.781078991480172E-004;
2.425333333333334E+009;1.668163239955902E-001;-9.281979501247406E-002;1.235966454260051E-003;6.047445349395275E-004;
2.425500000000000E+009;1.675523072481155E-001;-9.383257478475571E-002;1.202057814225555E-003;3.372356586623937E-004;
2.425666666666667E+009;1.683299392461777E-001;-9.469682723283768E-002;1.171920564956963E-003;3.972494450863451E-004;
2.425833333333334E+009;1.689566075801849E-001;-9.572668373584747E-002;1.151780015788972E-003;1.069794379873201E-004;
2.426000000000000E+009;1.695615649223328E-001;-9.626746922731400E-002;1.157531514763832E-003;1.887808903120458E-004;
2.426166666666667E+009;1.703875362873077E-001;-9.691527485847473E-002;1.206164481118321E-003;2.847506584657822E-005;
2.426333333333334E+009;1.708441078662872E-001;-9.755531698465347E-002;1.024880795739591E-003;3.471185118542053E-005;
2.426500000000000E+009;1.715384572744370E-001;-9.783861786127091E-002;1.265814295038581E-003;-3.122190901194699E-005;
2.426666666666667E+009;1.722301989793778E-001;-9.827642887830734E-002;1.205609878525138E-003;-1.603421987965703E-004;
2.426833333333334E+009;1.728155314922333E-001;-9.867822378873825E-002;1.047512982040644E-003;-3.471395175438374E-004;
2.427000000000000E+009;1.731481701135635E-001;-9.894631057977676E-002;1.058608759194613E-003;-3.164074732922018E-004;
2.427166666666667E+009;1.735525727272034E-001;-9.899845719337463E-002;1.098371460102499E-003;-3.334838838782162E-004;
2.427333333333334E+009;1.738039553165436E-001;-9.932338446378708E-002;1.097501371987164E-003;-6.520993774756789E-004;
2.427500000000000E+009;1.739413887262344E-001;-9.952644258737564E-002;1.092207850888372E-003;-5.384025862440467E-004;
2.427666666666667E+009;1.738579720258713E-001;-9.954986721277237E-002;8.770565618760884E-004;-7.002894999459386E-004;
2.427833333333334E+009;1.738911718130112E-001;-9.971679747104645E-002;8.259621681645513E-004;-8.081482374109328E-004;
