# Version 1.00
#
freq[Hz];re:Trc1_S11;im:Trc1_S11;re:Trc2_S21;im:Trc2_S21;
2.400000000000000E+009;1.557032465934753E-001;1.107814311981201E-001;-4.661760758608580E-003;-5.668697413057089E-004;
2.400166666666667E+009;1.551526784896851E-001;1.084096729755402E-001;-4.605351947247982E-003;-2.768166887108237E-004;
2.400333333333334E+009;1.548423618078232E-001;1.062047332525253E-001;-4.714966751635075E-003;-6.301118264673278E-005;
2.400500000000000E+009;1.546747386455536E-001;1.035104095935822E-001;-4.742943681776524E-003;1.395661820424721E-004;
2.400666666666667E+009;1.544903069734573E-001;1.012459918856621E-001;-4.524020478129387E-003;3.376727690920234E-004;
2.400833333333334E+009;1.542859524488449E-001;9.826293587684631E-002;-4.436721093952656E-003;5.890280008316040E-004;
2.401000000000000E+009;1.540742814540863E-001;9.530149400234222E-002;-4.410888068377972E-003;7.901234203018248E-004;
2.401166666666667E+009;1.538215279579163E-001;9.235374629497528E-002;-4.354703705757856E-003;8.999102283269167E-004;
2.401333333333334E+009;1.539740264415741E-001;8.951204270124435E-002;-4.269936587661505E-003;9.673531167209148E-004;
2.401500000000000E+009;1.541008651256561E-001;8.640949428081513E-002;-4.260449670255184E-003;1.060565118677914E-003;
2.401666666666667E+009;1.542005240917206E-001;8.351934701204300E-002;-4.040284547954798E-003;1.281370408833027E-003;
2.401833333333334E+009;1.545920670032501E-001;8.062610030174255E-002;-3.979380708187819E-003;1.471510273404419E-003;
2.402000000000000E+009;1.549534201622009E-001;7.749473303556442E-002;-3.863903926685453E-003;1.611620653420687E-003;
2.402166666666667E+009;1.558592170476914E-001;7.477761059999466E-002;-3.736309939995408E-003;1.579085714183748E-003;
2.402333333333334E+009;1.565793007612228E-001;7.174645364284515E-002;-3.733061254024506E-003;1.851992332376540E-003;
2.402500000000000E+009;1.575730890035629E-001;6.924712657928467E-002;-3.729769960045815E-003;1.806058338843286E-003;
2.402666666666667E+009;1.586071699857712E-001;6.656995415687561E-002;-3.408190328627825E-003;1.985818147659302E-003;
2.402833333333334E+009;1.598775237798691E-001;6.377240270376205E-002;-3.375980304554105E-003;2.046623500064015E-003;
2.403000000000000E+009;1.610378623008728E-001;6.112774834036827E-002;-3.269771812483668E-003;2.282685600221157E-003;
2.403166666666667E+009;1.629022061824799E-001;5.878655612468720E-002;-2.939928323030472E-003;2.173563465476036E-003;
2.403333333333334E+009;1.642038971185684E-001;5.624882131814957E-002;-2.963086590170860E-003;2.145318547263742E-003;
2.403500000000000E+009;1.661771088838577E-001;5.401141941547394E-002;-2.883338835090399E-003;2.089611487463117E-003;
2.403666666666667E+009;1.676121503114700E-001;5.182516202330589E-002;-2.764208940789104E-003;2.225416246801615E-003;
2.403833333333334E+009;1.697131544351578E-001;4.986414685845375E-002;-2.698189811781049E-003;2.246964257210493E-003;
2.404000000000000E+009;1.710306107997894E-001;4.777291789650917E-002;-2.677276032045484E-003;2.079112222418189E-003;
2.404166666666667E+009;1.732692271471024E-001;4.612489789724350E-002;-2.457715338096023E-003;2.059077145531774E-003;
2.404333333333334E+009;1.749051809310913E-001;4.426257312297821E-002;-2.564371796324849E-003;2.107650041580200E-003;
2.404500000000000E+009;1.765710562467575E-001;4.283130913972855E-002;-2.704338869079948E-003;2.211898099631071E-003;
2.404666666666667E+009;1.785368621349335E-001;4.158850386738777E-002;-2.867982257157564E-003;2.069672103971243E-003;
2.404833333333334E+009;1.804333925247192E-001;4.025414213538170E-002;-2.775806933641434E-003;2.155091147869825E-003;
2.405000000000000E+009;1.819702833890915E-001;3.958501294255257E-002;-2.740764524787664E-003;2.516811480745673E-003;
2.405166666666667E+009;1.837199181318283E-001;3.886851668357849E-002;-2.763726515695453E-003;2.543293870985508E-003;
2.405333333333334E+009;1.853052228689194E-001;3.818682208657265E-002;-2.743449760600925E-003;2.875588368624449E-003;
2.405500000000000E+009;1.871148347854614E-001;3.761822357773781E-002;-2.624512184411287E-003;2.842636778950691E-003;
2.405666666666667E+009;1.884781271219254E-001;3.732842952013016E-002;-2.616266487166286E-003;2.997431205585599E-003;
2.405833333333334E+009;1.900633722543716E-001;3.701638802886009E-002;-2.404836937785149E-003;3.217545105144382E-003;
2.406000000000000E+009;1.914107203483582E-001;3.703229129314423E-002;-2.221445087343454E-003;3.175304504111409E-003;
2.406166666666667E+009;1.925492435693741E-001;3.684928268194199E-002;-2.040470950305462E-003;3.248536726459861E-003;
2.406333333333334E+009;1.937771886587143E-001;3.702154010534287E-002;-1.960756722837687E-003;3.242128062993288E-003;
2.406500000000000E+009;1.947800219058991E-001;3.725360706448555E-002;-1.850367989391089E-003;3.246198408305645E-003;
2.406666666666667E+009;1.957036703824997E-001;3.738236799836159E-002;-1.822580117732287E-003;3.304182784631848E-003;
2.406833333333334E+009;1.965035796165466E-001;3.761661797761917E-002;-1.684267539530993E-003;3.221472259610891E-003;
2.407000000000000E+009;1.969616115093231E-001;3.799081593751907E-002;-1.677307882346213E-003;3.275158582255244E-003;
2.407166666666667E+009;1.974627822637558E-001;3.822130709886551E-002;-1.533263013698161E-003;3.366718767210841E-003;
2.407333333333334E+009;1.976302713155747E-001;3.856626898050308E-002;-1.556857372634113E-003;3.175240941345692E-003;
2.407500000000000E+009;1.976377367973328E-001;3.906397148966789E-002;-1.345479628071189E-003;3.454488934949040E-003;
2.407666666666667E+009;1.979301273822784E-001;3.922719135880470E-002;-1.565542188473046E-003;3.429328789934516E-003;
2.407833333333334E+009;1.975688040256500E-001;3.948799520730972E-002;-1.497221877798438E-003;3.449047449976206E-003;
2.408000000000000E+009;1.975615173578262E-001;3.960366547107697E-002;-1.398189575411379E-003;3.604002064093947E-003;
2.408166666666667E+009;1.970683485269547E-001;3.963894397020340E-002;-1.456623082049191E-003;3.672350198030472E-003;
2.408333333333334E+009;1.966767013072968E-001;3.957815095782280E-002;-1.241517951712012E-003;3.732985584065318E-003;
2.408500000000000E+009;1.960681080818176E-001;3.951119631528854E-002;-1.141496351920068E-003;3.903287928551436E-003;
2.408666666666667E+009;1.954667866230011E-001;3.929312154650688E-002;-1.133704208768904E-003;4.030913580209017E-003;
2.408833333333334E+009;1.946804821491242E-001;3.895161300897598E-002;-1.087920158170164E-003;4.065471701323986E-003;
2.409000000000000E+009;1.936213523149490E-001;3.840348124504089E-002;-8.414543699473143E-004;4.291058983653784E-003;
2.409166666666667E+009;1.926424056291580E-001;3.776257485151291E-002;-7.390476530417800E-004;4.232221748679876E-003;
2.409333333333334E+009;1.916641741991043E-001;3.699349611997604E-002;-6.182343931868672E-004;4.528622608631849E-003;
2.409500000000000E+009;1.905001699924469E-001;3.612551465630531E-002;-4.408323729876429E-004;4.470243118703365E-003;
2.409666666666667E+009;1.893425285816193E-001;3.488528355956078E-002;-1.938204950420186E-004;4.495705477893353E-003;
2.409833333333334E+009;1.880691051483154E-001;3.364981338381767E-002;-1.015486850519665E-004;4.555695690214634E-003;
2.410000000000000E+009;1.868976354598999E-001;3.232076391577721E-002;1.054752501659095E-004;4.496297799050808E-003;
2.410166666666667E+009;1.856718212366104E-001;3.072007931768894E-002;2.122873265761882E-004;4.697302356362343E-003;
2.410333333333334E+009;1.844979077577591E-001;2.897630259394646E-002;3.883993194904178E-004;4.613813944160938E-003;
2.410500000000000E+009;1.832947283983231E-001;2.721665985882282E-002;5.933836800977588E-004;4.872105550020933E-003;
2.410666666666667E+009;1.820365041494370E-001;2.510740980505943E-002;7.605412974953651E-004;4.788511432707310E-003;
2.410833333333334E+009;1.815197318792343E-001;2.305660769343376E-002;1.010169973596931E-003;4.727373365312815E-003;
2.411000000000000E+009;1.803433299064636E-001;2.099981158971787E-002;1.280421973206103E-003;4.709759727120400E-003;
2.411166666666667E+009;1.794537007808685E-001;1.866336166858673E-002;1.527111395262182E-003;4.560358356684446E-003;
2.411333333333334E+009;1.786416918039322E-001;1.620815135538578E-002;1.543745514936745E-003;4.553731996566057E-003;
2.411500000000000E+009;1.780309230089188E-001;1.369268819689751E-002;1.823314232751727E-003;4.535321146249771E-003;
2.411666666666667E+009;1.777751296758652E-001;1.144734397530556E-002;2.123290440067649E-003;4.387725144624710E-003;
2.411833333333334E+009;1.771513372659683E-001;8.836437948048115E-003;2.065176842734218E-003;4.413657821714878E-003;
2.412000000000000E+009;1.770574003458023E-001;6.138529162853956E-003;2.375925658270717E-003;4.239720292389393E-003;
2.412166666666667E+009;1.769364774227142E-001;3.875446505844593E-003;2.512958133593202E-003;4.393003415316343E-003;
2.412333333333334E+009;1.771218180656433E-001;9.875132236629725E-004;2.907359041273594E-003;4.150370601564646E-003;
2.412500000000000E+009;1.772819459438324E-001;-1.587404403835535E-003;2.967560430988669E-003;4.070020746439695E-003;
2.412666666666667E+009;1.778031885623932E-001;-4.300441127270460E-003;3.237370867282152E-003;3.946090117096901E-003;
2.412833333333334E+009;1.783816963434219E-001;-6.866473704576492E-003;3.512474941089749E-003;3.806831780821085E-003;
2.413000000000000E+009;1.788540035486221E-001;-9.338902309536934E-003;3.695242106914520E-003;3.740120679140091E-003;
2.413166666666667E+009;1.797724813222885E-001;-1.192723959684372E-002;3.939697984606028E-003;3.440527943894267E-003;
2.413333333333334E+009;1.808227896690369E-001;-1.462064776569605E-002;4.131985828280449E-003;3.395760199055076E-003;
2.413500000000000E+009;1.816990524530411E-001;-1.698174700140953E-002;4.304971545934677E-003;2.979011507704854E-003;
2.413666666666667E+009;1.829836815595627E-001;-1.938339509069920E-002;4.323740489780903E-003;2.588053466752172E-003;
2.413833333333334E+009;1.840965002775192E-001;-2.165928483009338E-002;4.459973890334368E-003;2.377999713644385E-003;
2.414000000000000E+009;1.852173209190369E-001;-2.388659492135048E-002;4.470768850296736E-003;1.867264159955084E-003;
2.414166666666667E+009;1.865165382623673E-001;-2.584236674010754E-002;4.632771015167236E-003;1.663950271904469E-003;
2.414333333333334E+009;1.878620386123657E-001;-2.810070104897022E-002;4.511801525950432E-003;1.586670172400773E-003;
2.414500000000000E+009;1.893361657857895E-001;-2.974938042461872E-002;4.382961895316839E-003;1.150701311416924E-003;
2.414666666666667E+009;1.905826479196549E-001;-3.149340674281120E-002;4.188396967947483E-003;9.247062844224274E-004;
2.414833333333334E+009;1.920612156391144E-001;-3.315786644816399E-002;4.092494025826454E-003;7.091765291988850E-004;
2.415000000000000E+009;1.931719034910202E-001;-3.461597114801407E-002;4.175601527094841E-003;6.545569631271064E-004;
2.415166666666667E+009;1.947751194238663E-001;-3.589807078242302E-002;4.166565369814634E-003;3.875024267472327E-004;
2.415333333333334E+009;1.963972151279450E-001;-3.697785362601280E-002;3.946035634726286E-003;2.249967947136611E-004;
2.415500000000000E+009;1.976509839296341E-001;-3.788916394114494E-002;3.946133423596621E-003;1.519554934930056E-004;
2.415666666666667E+009;1.990357339382172E-001;-3.881904855370522E-002;3.993074875324965E-003;-4.548846845864318E-005;
2.415833333333334E+009;2.001876682043076E-001;-3.950877487659454E-002;3.842668607831001E-003;-1.498978235758841E-004;
2.416000000000000E+009;2.012488245964050E-001;-4.021833091974258E-002;3.679132787510753E-003;-2.723955258261412E-004;
2.416166666666667E+009;2.021760791540146E-001;-4.081992059946060E-002;3.601975506171584E-003;-4.860421176999807E-004;
2.416333333333334E+009;2.033375948667526E-001;-4.116055369377136E-002;3.457377199083567E-003;-5.268746754154563E-004;
2.416500000000000E+009;2.041660845279694E-001;-4.134564846754074E-002;3.399461740627885E-003;-7.242572610266507E-004;
2.416666666666667E+009;2.045865058898926E-001;-4.173102602362633E-002;3.249971428886056E-003;-7.187163573689759E-004;
2.416833333333334E+009;2.051679641008377E-001;-4.180382937192917E-002;3.011709079146385E-003;-9.246618719771504E-004;
2.417000000000000E+009;2.055365890264511E-001;-4.187891632318497E-002;2.743415301665664E-003;-1.152976998127997E-003;
2.417166666666667E+009;2.054715305566788E-001;-4.177989438176155E-002;2.759999828413129E-003;-1.070653554052115E-003;
2.417333333333334E+009;2.055653780698776E-001;-4.146898910403252E-002;2.579409629106522E-003;-9.130864636972547E-004;
2.417500000000000E+009;2.055171728134155E-001;-4.139085859060288E-002;2.378328470513225E-003;-9.935840498656035E-004;
2.417666666666667E+009;2.052701264619827E-001;-4.103454947471619E-002;2.525544958189130E-003;-9.498530998826027E-004;
2.417833333333334E+009;2.049678564071655E-001;-4.070611670613289E-002;2.280103974044323E-003;-1.059887697920203E-003;
2.418000000000000E+009;2.046333551406860E-001;-4.028812423348427E-002;2.317630220204592E-003;-8.560394053347409E-004;
2.418166666666667E+009;2.039040029048920E-001;-4.001263529062271E-002;2.143749734386802E-003;-7.436379091814160E-004;
2.418333333333334E+009;2.032048553228378E-001;-3.960060328245163E-002;2.121329773217440E-003;-6.992892012931407E-004;
2.418500000000000E+009;2.022757232189179E-001;-3.958521038293839E-002;2.215004060417414E-003;-8.045227150432766E-004;
2.418666666666667E+009;2.014430016279221E-001;-3.926659375429153E-002;2.167874947190285E-003;-6.411969661712647E-004;
2.418833333333334E+009;2.002659738063812E-001;-3.907391056418419E-002;2.137611387297511E-003;-5.226390785537660E-004;
2.419000000000000E+009;1.989818960428238E-001;-3.918945044279099E-002;2.229785779491067E-003;-5.595468683168292E-004;
2.419166666666667E+009;1.978026032447815E-001;-3.923844173550606E-002;2.127064159139991E-003;-7.406329968944192E-004;
2.419333333333334E+009;1.963637769222260E-001;-3.957046195864677E-002;2.240677131339908E-003;-7.570889429189265E-004;
2.419500000000000E+009;1.948167830705643E-001;-3.986845538020134E-002;2.282309811562300E-003;-5.214430857449770E-004;
2.419666666666667E+009;1.932160556316376E-001;-4.033479467034340E-002;2.102810656651855E-003;-5.567866028286517E-004;
2.419833333333334E+009;1.914196759462357E-001;-4.086798802018166E-002;2.264179289340973E-003;-5.291298148222268E-004;
2.420000000000000E+009;1.897214949131012E-001;-4.166123270988464E-002;2.397886244580150E-003;-5.126004107296467E-004;
2.420166666666667E+009;1.879699528217316E-001;-4.236123710870743E-002;2.458391012623906E-003;-4.798882873728871E-004;
2.420333333333334E+009;1.861796081066132E-001;-4.341755434870720E-002;2.508795587345958E-003;-5.578999989666045E-004;
2.420500000000000E+009;1.842721700668335E-001;-4.470186680555344E-002;2.502111718058586E-003;-6.396527751348913E-004;
2.420666666666667E+009;1.825486868619919E-001;-4.570303484797478E-002;2.629561582580209E-003;-5.893323686905205E-004;
2.420833333333334E+009;1.807348430156708E-001;-4.713422432541847E-002;2.643180079758167E-003;-6.324360147118568E-004;
2.421000000000000E+009;1.790265291929245E-001;-4.854085296392441E-002;2.791360951960087E-003;-7.565420237369835E-004;
2.421166666666667E+009;1.773000508546829E-001;-5.041891336441040E-002;2.843458903953433E-003;-7.907424587756395E-004;
2.421333333333334E+009;1.754177808761597E-001;-5.179436132311821E-002;2.986769657582045E-003;-8.441084646619856E-004;
2.421500000000000E+009;1.738791465759277E-001;-5.389709025621414E-002;2.936270087957382E-003;-9.380163974128664E-004;
2.421666666666667E+009;1.724296659231186E-001;-5.569846183061600E-002;2.911987248808146E-003;-1.068452023901045E-003;
2.421833333333334E+009;1.710692495107651E-001;-5.758464708924294E-002;3.015226684510708E-003;-1.190933864563704E-003;
2.422000000000000E+009;1.697633117437363E-001;-5.970247462391853E-002;3.015359863638878E-003;-1.427738578058779E-003;
2.422166666666667E+009;1.686513572931290E-001;-6.197326630353928E-002;3.092498518526554E-003;-1.610164646990597E-003;
2.422333333333334E+009;1.674659550189972E-001;-6.409327685832977E-002;3.107153577730060E-003;-1.712273806333542E-003;
2.422500000000000E+009;1.663645058870316E-001;-6.609527021646500E-002;3.091596532613039E-003;-1.849929802119732E-003;
2.422666666666667E+009;1.656336486339569E-001;-6.843579560518265E-002;2.988894237205386E-003;-1.960986061021686E-003;
2.422833333333334E+009;1.650538444519043E-001;-7.060465961694717E-002;3.015050198882818E-003;-2.164753153920174E-003;
2.423000000000000E+009;1.643053889274597E-001;-7.284989953041077E-002;2.935940399765968E-003;-2.356077544391155E-003;
2.423166666666667E+009;1.637742966413498E-001;-7.502749562263489E-002;2.808683319017291E-003;-2.412928501144052E-003;
2.423333333333334E+009;1.635412424802780E-001;-7.746063917875290E-002;2.789404708892107E-003;-2.366525819525123E-003;
2.423500000000000E+009;1.634346097707748E-001;-7.941208034753799E-002;2.943162340670824E-003;-2.586747985333204E-003;
2.423666666666667E+009;1.633834689855576E-001;-8.174683153629303E-002;2.745624398812652E-003;-2.663467312231660E-003;
2.423833333333334E+009;1.633121073246002E-001;-8.369274437427521E-002;2.710479311645031E-003;-2.889654366299510E-003;
2.424000000000000E+009;1.633766889572144E-001;-8.568042516708374E-002;2.662847982719541E-003;-3.078073495998979E-003;
2.424166666666667E+009;1.634211987257004E-001;-8.751124143600464E-002;2.665411448106170E-003;-3.165485104545951E-003;
2.424333333333334E+009;1.637998968362808E-001;-8.933800458908081E-002;2.411877270787954E-003;-3.481243038550019E-003;
2.424500000000000E+009;1.641626358032227E-001;-9.141629934310913E-002;2.353048184886575E-003;-3.572755260393024E-003;
2.424666666666667E+009;1.645678430795670E-001;-9.287942945957184E-002;2.110682195052505E-003;-3.814708441495895E-003;
2.424833333333334E+009;1.652542203664780E-001;-9.450889378786087E-002;2.031480427831411E-003;-3.952798899263144E-003;
2.425000000000000E+009;1.657479107379913E-001;-9.594022482633591E-002;1.860586460679770E-003;-3.829308319836855E-003;
2.425166666666667E+009;1.661252677440643E-001;-9.726614505052567E-002;1.644128002226353E-003;-4.131268709897995E-003;
2.425333333333334E+009;1.665991097688675E-001;-9.847413748502731E-002;1.344269490800798E-003;-4.180276766419411E-003;
2.425500000000000E+009;1.673284024000168E-001;-9.963957965373993E-002;1.168241491541266E-003;-4.312212578952313E-003;
2.425666666666667E+009;1.678436398506165E-001;-1.004286557435989E-001;8.305826340802014E-004;-4.290079697966576E-003;
2.425833333333334E+009;1.683124303817749E-001;-1.014531701803207E-001;6.118239252828062E-004;-4.344516899436712E-003;
2.426000000000000E+009;1.690426766872406E-001;-1.019429713487625E-001;4.878067702520639E-004;-4.258668515831232E-003;
2.426166666666667E+009;1.696059107780457E-001;-1.025733053684235E-001;2.845909330062568E-004;-4.261578898876905E-003;
2.426333333333334E+009;1.698727756738663E-001;-1.032216325402260E-001;8.800916839390993E-005;-4.075043834745884E-003;
2.426500000000000E+009;1.706123799085617E-001;-1.036055758595467E-001;-1.133672703872435E-004;-4.257886204868555E-003;
2.426666666666667E+009;1.711001545190811E-001;-1.038613691926003E-001;-4.242935683578253E-004;-4.126218147575855E-003;
2.426833333333334E+009;1.714526861906052E-001;-1.041516289114952E-001;-5.242198822088540E-004;-4.087662324309349E-003;
2.427000000000000E+009;1.717380881309509E-001;-1.043976396322250E-001;-6.101662293076515E-004;-4.058361519128084E-003;
2.427166666666667E+009;1.720402836799622E-001;-1.044524461030960E-001;-7.856920128688216E-004;-3.901325399056077E-003;
2.427333333333334E+009;1.721829771995544E-001;-1.046169474720955E-001;-8.525012526661158E-004;-3.705953713506460E-003;
2.427500000000000E+009;1.722101420164108E-001;-1.046384796500206E-001;-1.054399064742029E-003;-3.890772350132465E-003;
2.427666666666667E+009;1.720678508281708E-001;-1.047175601124764E-001;-1.277092844247818E-003;-3.689395729452372E-003;
2.427833333333334E+009;1.718765795230866E-001;-1.046736761927605E-001;-1.222752151079476E-003;-3.683818737044931E-003;
