# Version 1.00
#
freq[Hz];re:Trc1_S11;im:Trc1_S11;re:Trc2_S21;im:Trc2_S21;
2.400000000000000E+009;1.557698398828507E-001;1.105956956744194E-001;-4.687571432441473E-003;-4.414703289512545E-004;
2.400166666666667E+009;1.552567481994629E-001;1.083437129855156E-001;-4.712122958153486E-003;-3.427658812142909E-004;
2.400333333333334E+009;1.550679206848145E-001;1.060649305582047E-001;-4.671990405768156E-003;-7.671767525607720E-005;
2.400500000000000E+009;1.546352654695511E-001;1.033960506320000E-001;-4.679237492382526E-003;1.073657404049300E-004;
2.400666666666667E+009;1.544942706823349E-001;1.009621918201447E-001;-4.601560998708010E-003;3.135241859126836E-004;
2.400833333333334E+009;1.541301608085632E-001;9.806930273771286E-002;-4.564078524708748E-003;4.979512304998934E-004;
2.401000000000000E+009;1.540712714195252E-001;9.524724632501602E-002;-4.516710061579943E-003;7.289288332685828E-004;
2.401166666666667E+009;1.538486182689667E-001;9.252053499221802E-002;-4.335550125688314E-003;8.468737942166627E-004;
2.401333333333334E+009;1.540969461202622E-001;8.958998322486877E-002;-4.321512766182423E-003;1.105836476199329E-003;
2.401500000000000E+009;1.542434394359589E-001;8.642026782035828E-002;-4.297840874642134E-003;1.099192420952022E-003;
2.401666666666667E+009;1.544815748929977E-001;8.339855074882507E-002;-3.928138874471188E-003;1.225016196258366E-003;
2.401833333333334E+009;1.545653045177460E-001;8.050533384084702E-002;-4.019567742943764E-003;1.403468078933656E-003;
2.402000000000000E+009;1.552642136812210E-001;7.752604782581329E-002;-3.931859042495489E-003;1.439201761968434E-003;
2.402166666666667E+009;1.560237109661102E-001;7.478474080562592E-002;-3.720086766406894E-003;1.708116848021746E-003;
2.402333333333334E+009;1.566323339939117E-001;7.186546176671982E-002;-3.622842486947775E-003;1.787496847100556E-003;
2.402500000000000E+009;1.576000750064850E-001;6.894865632057190E-002;-3.611765801906586E-003;1.914446707814932E-003;
2.402666666666667E+009;1.587328314781189E-001;6.653746217489243E-002;-3.523462917655706E-003;2.080440986901522E-003;
2.402833333333334E+009;1.599678397178650E-001;6.370740383863449E-002;-3.283255966380239E-003;2.134112874045968E-003;
2.403000000000000E+009;1.612287163734436E-001;6.111708655953407E-002;-3.338446142151952E-003;2.104095648974180E-003;
2.403166666666667E+009;1.630604863166809E-001;5.871017277240753E-002;-3.101100679486990E-003;2.163403667509556E-003;
2.403333333333334E+009;1.643452197313309E-001;5.618828907608986E-002;-2.751964144408703E-003;2.122942358255386E-003;
2.403500000000000E+009;1.660817116498947E-001;5.392908677458763E-002;-2.746077021583915E-003;1.964299473911524E-003;
2.403666666666667E+009;1.678365767002106E-001;5.178008228540421E-002;-2.737145405262709E-003;2.212902763858438E-003;
2.403833333333334E+009;1.696077585220337E-001;4.976474121212959E-002;-2.657403470948339E-003;2.202653791755438E-003;
2.404000000000000E+009;1.713621169328690E-001;4.761125519871712E-002;-2.670855028554797E-003;1.947142416611314E-003;
2.404166666666667E+009;1.731836497783661E-001;4.606986790895462E-002;-2.701317891478539E-003;2.067795721814036E-003;
2.404333333333334E+009;1.750029325485230E-001;4.422954469919205E-002;-2.433430636301637E-003;2.036180347204208E-003;
2.404500000000000E+009;1.767592132091522E-001;4.270255193114281E-002;-2.792468061670661E-003;2.019456587731838E-003;
2.404666666666667E+009;1.786250472068787E-001;4.145042225718498E-002;-2.665442414581776E-003;2.266044961288571E-003;
2.404833333333334E+009;1.804427504539490E-001;4.024668782949448E-002;-2.801582682877779E-003;2.351631410419941E-003;
2.405000000000000E+009;1.819484084844589E-001;3.941570594906807E-002;-2.607521368190646E-003;2.341371495276690E-003;
2.405166666666667E+009;1.838576644659042E-001;3.863108903169632E-002;-2.627540612593293E-003;2.554627601057291E-003;
2.405333333333334E+009;1.853984594345093E-001;3.812464326620102E-002;-2.607454080134630E-003;2.789238002151251E-003;
2.405500000000000E+009;1.870719343423843E-001;3.767093271017075E-002;-2.603182569146156E-003;2.824425464496017E-003;
2.405666666666667E+009;1.884548068046570E-001;3.725317493081093E-002;-2.514209831133485E-003;2.818986540660262E-003;
2.405833333333334E+009;1.900799125432968E-001;3.709641844034195E-002;-2.229935722425580E-003;3.083651186898351E-003;
2.406000000000000E+009;1.912447512149811E-001;3.680055961012840E-002;-2.209156518802047E-003;3.315186360850930E-003;
2.406166666666667E+009;1.925481706857681E-001;3.681192174553871E-002;-2.118409378454089E-003;3.307035891339183E-003;
2.406333333333334E+009;1.937247067689896E-001;3.689161688089371E-002;-2.022035419940949E-003;3.244365332648158E-003;
2.406500000000000E+009;1.946040391921997E-001;3.720086812973023E-002;-1.834220485761762E-003;3.199222963303328E-003;
2.406666666666667E+009;1.956243067979813E-001;3.741208836436272E-002;-1.705380505882204E-003;3.308024490252137E-003;
2.406833333333334E+009;1.963082849979401E-001;3.761552274227142E-002;-1.613253029063344E-003;3.255794988945127E-003;
2.407000000000000E+009;1.968958377838135E-001;3.789314255118370E-002;-1.625807839445770E-003;3.237160621210933E-003;
2.407166666666667E+009;1.974353343248367E-001;3.812525421380997E-002;-1.628750003874302E-003;3.145613009110093E-003;
2.407333333333334E+009;1.975515931844711E-001;3.846239298582077E-002;-1.557032344862819E-003;3.179879393428564E-003;
2.407500000000000E+009;1.976757645606995E-001;3.886004164814949E-002;-1.442876644432545E-003;3.339586313813925E-003;
2.407666666666667E+009;1.978592872619629E-001;3.912967070937157E-002;-1.489923102781177E-003;3.448358504101634E-003;
2.407833333333334E+009;1.976074576377869E-001;3.940057754516602E-002;-1.435210928320885E-003;3.582267323508859E-003;
2.408000000000000E+009;1.975153386592865E-001;3.960513696074486E-002;-1.427897950634360E-003;3.588524414226413E-003;
2.408166666666667E+009;1.970548629760742E-001;3.966107964515686E-002;-1.266812207177281E-003;3.688030177727342E-003;
2.408333333333334E+009;1.967626214027405E-001;3.942193463444710E-002;-1.245964318513870E-003;3.601331030949950E-003;
2.408500000000000E+009;1.960260868072510E-001;3.943823277950287E-002;-1.094301929697394E-003;3.777992678806186E-003;
2.408666666666667E+009;1.954062432050705E-001;3.925026580691338E-002;-1.083952141925693E-003;3.945304080843926E-003;
2.408833333333334E+009;1.946029216051102E-001;3.887841105461121E-002;-9.233595919795334E-004;4.048814997076988E-003;
2.409000000000000E+009;1.937017440795898E-001;3.821771591901779E-002;-8.976141107268632E-004;4.108863417059183E-003;
2.409166666666667E+009;1.926796436309815E-001;3.768172860145569E-002;-7.327637285925448E-004;4.289940465241671E-003;
2.409333333333334E+009;1.915408372879028E-001;3.699100762605667E-002;-5.667754448950291E-004;4.398759920150042E-003;
2.409500000000000E+009;1.902853101491928E-001;3.602948412299156E-002;-5.444749840535224E-004;4.455244168639183E-003;
2.409666666666667E+009;1.893624365329742E-001;3.480573743581772E-002;-3.224104002583772E-004;4.504737444221973E-003;
2.409833333333334E+009;1.880617141723633E-001;3.362385556101799E-002;-1.950245641637594E-004;4.558198153972626E-003;
2.410000000000000E+009;1.869415193796158E-001;3.213247284293175E-002;-3.684984403662384E-005;4.603720735758543E-003;
2.410166666666667E+009;1.855928450822830E-001;3.060619533061981E-002;2.270211261929944E-004;4.674355033785105E-003;
2.410333333333334E+009;1.844699978828430E-001;2.897546067833901E-002;3.935476124752313E-004;4.590976517647505E-003;
2.410500000000000E+009;1.832457035779953E-001;2.726711705327034E-002;7.294689421541989E-004;4.705894272774458E-003;
2.410666666666667E+009;1.821968108415604E-001;2.507141605019569E-002;8.654680568724871E-004;4.615014418959618E-003;
2.410833333333334E+009;1.813222318887711E-001;2.302932366728783E-002;8.637739229016006E-004;4.622742068022490E-003;
2.411000000000000E+009;1.803006082773209E-001;2.081474103033543E-002;1.029293052852154E-003;4.562534391880035E-003;
2.411166666666667E+009;1.793459057807922E-001;1.863556727766991E-002;1.472523203119636E-003;4.512880463153124E-003;
2.411333333333334E+009;1.787021607160568E-001;1.612306758761406E-002;1.361750066280365E-003;4.583369474858046E-003;
2.411500000000000E+009;1.779355555772781E-001;1.375864073634148E-002;1.848213956691325E-003;4.384298343211412E-003;
2.411666666666667E+009;1.777745783329010E-001;1.143351662904024E-002;1.814151532016695E-003;4.516031593084335E-003;
2.411833333333334E+009;1.772996932268143E-001;8.942079730331898E-003;2.197146881371737E-003;4.363977815955877E-003;
2.412000000000000E+009;1.771115064620972E-001;6.105453707277775E-003;2.362874802201986E-003;4.420920740813017E-003;
2.412166666666667E+009;1.770647615194321E-001;3.743967041373253E-003;2.460811985656619E-003;4.240472335368395E-003;
2.412333333333334E+009;1.770176887512207E-001;1.131518161855638E-003;2.628370421007276E-003;4.238302353769541E-003;
2.412500000000000E+009;1.773076951503754E-001;-1.639559864997864E-003;2.987183397635818E-003;4.040675237774849E-003;
2.412666666666667E+009;1.778062880039215E-001;-4.411267116665840E-003;2.937705023214221E-003;3.929058555513620E-003;
2.412833333333334E+009;1.782005876302719E-001;-6.925580557435751E-003;3.313440596684814E-003;3.837111406028271E-003;
2.413000000000000E+009;1.791888624429703E-001;-9.565575979650021E-003;3.502667183056474E-003;3.637626534327865E-003;
2.413166666666667E+009;1.796289086341858E-001;-1.185576897114515E-002;3.731532488018274E-003;3.514839569106698E-003;
2.413333333333334E+009;1.808956861495972E-001;-1.463707722723484E-002;4.131601657718420E-003;3.187316237017512E-003;
2.413500000000000E+009;1.816134899854660E-001;-1.704503968358040E-002;4.045543260872364E-003;3.037350485101342E-003;
2.413666666666667E+009;1.828337311744690E-001;-1.946173794567585E-002;4.255956038832665E-003;2.600949024781585E-003;
2.413833333333334E+009;1.840187609195709E-001;-2.172226458787918E-002;4.476351663470268E-003;2.350266091525555E-003;
2.414000000000000E+009;1.851777136325836E-001;-2.386713400483131E-002;4.478494171053171E-003;1.890823710709810E-003;
2.414166666666667E+009;1.865380555391312E-001;-2.601613476872444E-002;4.418244119733572E-003;1.691118115559220E-003;
2.414333333333334E+009;1.878340542316437E-001;-2.803267911076546E-002;4.422674886882305E-003;1.422803732566536E-003;
2.414500000000000E+009;1.892040073871613E-001;-2.999889664351940E-002;4.348055925220251E-003;1.232747919857502E-003;
2.414666666666667E+009;1.905664950609207E-001;-3.156451508402824E-002;4.134827293455601E-003;1.019838149659336E-003;
2.414833333333334E+009;1.919979602098465E-001;-3.315991908311844E-002;4.167981445789337E-003;7.799803861416876E-004;
2.415000000000000E+009;1.932875066995621E-001;-3.461680933833122E-002;3.981465473771095E-003;7.045442471280694E-004;
2.415166666666667E+009;1.947651058435440E-001;-3.586389869451523E-002;3.989772871136665E-003;4.215358057990670E-004;
2.415333333333334E+009;1.962102204561234E-001;-3.704122453927994E-002;3.975271247327328E-003;3.578927135095000E-004;
2.415500000000000E+009;1.976100653409958E-001;-3.780965134501457E-002;3.769907867535949E-003;1.239619596162811E-004;
2.415666666666667E+009;1.989311724901199E-001;-3.881141170859337E-002;3.749302821233869E-003;1.541363017167896E-004;
2.415833333333334E+009;2.001545429229736E-001;-3.968151286244392E-002;3.760470775887370E-003;-9.143129864241928E-005;
2.416000000000000E+009;2.011886537075043E-001;-4.026802256703377E-002;3.605525242164731E-003;-2.115234237862751E-004;
2.416166666666667E+009;2.022711187601090E-001;-4.090545326471329E-002;3.553197719156742E-003;-3.495355485938489E-004;
2.416333333333334E+009;2.031817585229874E-001;-4.119056463241577E-002;3.444546135142446E-003;-5.586581537500024E-004;
2.416500000000000E+009;2.039632499217987E-001;-4.151842370629311E-002;3.312093205749989E-003;-6.629840936511755E-004;
2.416666666666667E+009;2.045724689960480E-001;-4.187364876270294E-002;3.151790238916874E-003;-5.664270720444620E-004;
2.416833333333334E+009;2.049467563629150E-001;-4.178205505013466E-002;3.046286758035421E-003;-7.112122257240117E-004;
2.417000000000000E+009;2.053801268339157E-001;-4.187287390232086E-002;2.823607996106148E-003;-8.099281112663448E-004;
2.417166666666667E+009;2.054260224103928E-001;-4.179979488253593E-002;2.708726562559605E-003;-9.794081561267376E-004;
2.417333333333334E+009;2.054607123136520E-001;-4.141668602824211E-002;2.750999294221401E-003;-8.557119872421026E-004;
2.417500000000000E+009;2.054111063480377E-001;-4.137561097741127E-002;2.426107646897435E-003;-8.132622460834682E-004;
2.417666666666667E+009;2.050518095493317E-001;-4.099371656775475E-002;2.419558353722096E-003;-7.846092339605093E-004;
2.417833333333334E+009;2.049186974763870E-001;-4.063200205564499E-002;2.295070560649037E-003;-7.880951743572950E-004;
2.418000000000000E+009;2.045099288225174E-001;-4.016484692692757E-002;2.322904532775283E-003;-6.032870733179152E-004;
2.418166666666667E+009;2.038115561008453E-001;-3.994549438357353E-002;2.245477866381407E-003;-7.784023764543235E-004;
2.418333333333334E+009;2.030569463968277E-001;-3.965374827384949E-002;2.295560669153929E-003;-7.509036804549396E-004;
2.418500000000000E+009;2.022915035486221E-001;-3.947135061025620E-002;2.207602839916945E-003;-6.845764582976699E-004;
2.418666666666667E+009;2.014519274234772E-001;-3.912625089287758E-002;2.207550220191479E-003;-6.189898122102022E-004;
2.418833333333334E+009;2.001870870590210E-001;-3.910281136631966E-002;2.213100669905543E-003;-4.825495125260204E-004;
2.419000000000000E+009;1.988197565078735E-001;-3.902539983391762E-002;2.331589115783572E-003;-5.594170070253313E-004;
2.419166666666667E+009;1.976316273212433E-001;-3.929792344570160E-002;2.263727132230997E-003;-5.858798394910991E-004;
2.419333333333334E+009;1.962310820817947E-001;-3.949723020195961E-002;2.296011429280043E-003;-4.313251411076635E-004;
2.419500000000000E+009;1.947248876094818E-001;-3.982175886631012E-002;2.189239952713251E-003;-4.493102314881980E-004;
2.419666666666667E+009;1.931147277355194E-001;-4.035485163331032E-002;2.351014874875546E-003;-4.386250802781433E-004;
2.419833333333334E+009;1.913086622953415E-001;-4.084955155849457E-002;2.388538327068090E-003;-5.780197097919881E-004;
2.420000000000000E+009;1.896470934152603E-001;-4.154831543564796E-002;2.422348828986287E-003;-4.524500691331923E-004;
2.420166666666667E+009;1.879950165748596E-001;-4.238807037472725E-002;2.394539536908269E-003;-5.105224554426968E-004;
2.420333333333334E+009;1.861150115728378E-001;-4.344771802425385E-002;2.568043768405914E-003;-4.677231772802770E-004;
2.420500000000000E+009;1.843532025814056E-001;-4.453194513916969E-002;2.543542068451643E-003;-4.991271416656673E-004;
2.420666666666667E+009;1.824879795312882E-001;-4.567627236247063E-002;2.508771372959018E-003;-5.769833805970848E-004;
2.420833333333334E+009;1.806569248437882E-001;-4.704401269555092E-002;2.671678783372045E-003;-5.313148722052574E-004;
2.421000000000000E+009;1.788199245929718E-001;-4.858753085136414E-002;2.779118018224835E-003;-6.184286321513355E-004;
2.421166666666667E+009;1.775007694959641E-001;-5.021641403436661E-002;2.903609536588192E-003;-7.906890241429210E-004;
2.421333333333334E+009;1.754197031259537E-001;-5.181755498051643E-002;2.971417969092727E-003;-8.612439269199967E-004;
2.421500000000000E+009;1.737839877605438E-001;-5.393502861261368E-002;3.026454476639628E-003;-9.704571566544473E-004;
2.421666666666667E+009;1.724360883235931E-001;-5.558860674500465E-002;3.090471262112260E-003;-1.056612236425281E-003;
2.421833333333334E+009;1.710753440856934E-001;-5.757710337638855E-002;2.997888019308448E-003;-1.158484839834273E-003;
2.422000000000000E+009;1.696229875087738E-001;-5.955229699611664E-002;2.988283056765795E-003;-1.274457667022944E-003;
2.422166666666667E+009;1.687867343425751E-001;-6.187189370393753E-002;3.065288532525301E-003;-1.387906260788441E-003;
2.422333333333334E+009;1.675230115652084E-001;-6.407871842384338E-002;3.058305475860834E-003;-1.696435967460275E-003;
2.422500000000000E+009;1.665359735488892E-001;-6.614755094051361E-002;3.052417188882828E-003;-1.781880622729659E-003;
2.422666666666667E+009;1.656842380762100E-001;-6.833503395318985E-002;3.125314600765705E-003;-1.752115902490914E-003;
2.422833333333334E+009;1.649789810180664E-001;-7.066147029399872E-002;2.985276049003005E-003;-1.974514452740550E-003;
2.423000000000000E+009;1.641967743635178E-001;-7.294589281082153E-002;2.982919570058584E-003;-1.972863683477044E-003;
2.423166666666667E+009;1.636940538883209E-001;-7.506644725799561E-002;3.059202572330833E-003;-2.380829537287355E-003;
2.423333333333334E+009;1.634712070226669E-001;-7.747241854667664E-002;2.852844074368477E-003;-2.396944211795926E-003;
2.423500000000000E+009;1.634009480476379E-001;-7.952477782964706E-002;2.855897182598710E-003;-2.488509984686971E-003;
2.423666666666667E+009;1.633330136537552E-001;-8.163215219974518E-002;2.894865348935127E-003;-2.688260516151786E-003;
2.423833333333334E+009;1.632586270570755E-001;-8.360577374696732E-002;2.808592282235622E-003;-2.956551499664784E-003;
2.424000000000000E+009;1.634026318788528E-001;-8.568256348371506E-002;2.660546684637666E-003;-2.978521864861250E-003;
2.424166666666667E+009;1.634729653596878E-001;-8.744046837091446E-002;2.528578741475940E-003;-3.179691964760423E-003;
2.424333333333334E+009;1.637256443500519E-001;-8.936367928981781E-002;2.605669666081667E-003;-3.286693710833788E-003;
2.424500000000000E+009;1.641841381788254E-001;-9.135801345109940E-002;2.256354782730341E-003;-3.622338408604264E-003;
2.424666666666667E+009;1.645001173019409E-001;-9.292352199554443E-002;2.383987419307232E-003;-3.720123087987304E-003;
2.424833333333334E+009;1.651535928249359E-001;-9.438773989677429E-002;2.073215087875724E-003;-3.894997993484139E-003;
2.425000000000000E+009;1.657287627458572E-001;-9.597311913967133E-002;1.800068654119968E-003;-4.057109355926514E-003;
2.425166666666667E+009;1.660662591457367E-001;-9.724500775337219E-002;1.643096213229001E-003;-4.156418610364199E-003;
2.425333333333334E+009;1.665211021900177E-001;-9.839894622564316E-002;1.355351763777435E-003;-4.197275731712580E-003;
2.425500000000000E+009;1.672643423080444E-001;-9.954819083213806E-002;1.124987960793078E-003;-4.350527655333281E-003;
2.425666666666667E+009;1.678615212440491E-001;-1.003538146615028E-001;9.264507680200040E-004;-4.374902695417404E-003;
2.425833333333334E+009;1.683145314455032E-001;-1.013751626014710E-001;7.255763630382717E-004;-4.346349742263556E-003;
2.426000000000000E+009;1.688364893198013E-001;-1.020745337009430E-001;4.517133929766715E-004;-4.441514145582914E-003;
2.426166666666667E+009;1.696200519800186E-001;-1.025260314345360E-001;2.807683194987476E-004;-4.309550859034061E-003;
2.426333333333334E+009;1.699926853179932E-001;-1.031860634684563E-001;2.046316658379510E-004;-4.318090155720711E-003;
2.426500000000000E+009;1.705450862646103E-001;-1.034500971436501E-001;-1.654032384976745E-004;-4.279102198779583E-003;
2.426666666666667E+009;1.710525155067444E-001;-1.038738861680031E-001;-2.681308833416551E-004;-4.258326254785061E-003;
2.426833333333334E+009;1.715030223131180E-001;-1.040932238101959E-001;-4.213759675621986E-004;-4.158703610301018E-003;
2.427000000000000E+009;1.717220395803452E-001;-1.042907536029816E-001;-6.063940236344934E-004;-3.975791390985251E-003;
2.427166666666667E+009;1.720511615276337E-001;-1.044551730155945E-001;-8.354210876859725E-004;-3.838460659608245E-003;
2.427333333333334E+009;1.721179932355881E-001;-1.045992746949196E-001;-7.480264757759869E-004;-3.855578834190965E-003;
2.427500000000000E+009;1.720734536647797E-001;-1.046377643942833E-001;-8.908564923331142E-004;-3.856050083413720E-003;
2.427666666666667E+009;1.720077544450760E-001;-1.046625748276711E-001;-1.178654260002077E-003;-3.838581498712301E-003;
2.427833333333334E+009;1.718292534351349E-001;-1.046345308423042E-001;-1.201948733069003E-003;-3.806740278378129E-003;
