# Version 1.00
#
freq[Hz];re:Trc1_S11;im:Trc1_S11;re:Trc2_S21;im:Trc2_S21;
2.400000000000000E+009;1.558388620615006E-001;1.108716949820519E-001;-4.719214979559183E-003;-3.765459987334907E-004;
2.400166666666667E+009;1.552116721868515E-001;1.085829883813858E-001;-4.769813269376755E-003;-3.715384518727660E-004;
2.400333333333334E+009;1.549386531114578E-001;1.064288690686226E-001;-4.597843158990145E-003;-7.802810432622209E-005;
2.400500000000000E+009;1.545060575008392E-001;1.036201342940331E-001;-4.726397339254618E-003;1.687821786617860E-004;
2.400666666666667E+009;1.543949246406555E-001;1.012520343065262E-001;-4.617398604750633E-003;3.888786595780402E-004;
2.400833333333334E+009;1.541585475206375E-001;9.844111651182175E-002;-4.554166924208403E-003;6.309387390501797E-004;
2.401000000000000E+009;1.540848463773727E-001;9.529270231723785E-002;-4.499309230595827E-003;6.651075091212988E-004;
2.401166666666667E+009;1.537826508283615E-001;9.249181300401688E-002;-4.451399669051170E-003;8.497395319864154E-004;
2.401333333333334E+009;1.538567394018173E-001;8.959562331438065E-002;-4.315556026995182E-003;1.009456813335419E-003;
2.401500000000000E+009;1.539533734321594E-001;8.656322211027145E-002;-4.244825802743435E-003;1.147972885519266E-003;
2.401666666666667E+009;1.542685925960541E-001;8.357181400060654E-002;-4.241355229169130E-003;1.169791328720748E-003;
2.401833333333334E+009;1.544627994298935E-001;8.067557960748673E-002;-4.029098432511091E-003;1.475603901781142E-003;
2.402000000000000E+009;1.551535874605179E-001;7.768384367227554E-002;-4.106320440769196E-003;1.501800841651857E-003;
2.402166666666667E+009;1.558469533920288E-001;7.495540380477905E-002;-3.801564220339060E-003;1.652152510359883E-003;
2.402333333333334E+009;1.565554291009903E-001;7.177656888961792E-002;-3.823104081675410E-003;1.793517265468836E-003;
2.402500000000000E+009;1.576378941535950E-001;6.920173019170761E-002;-3.557647811248899E-003;1.849575201049447E-003;
2.402666666666667E+009;1.585366725921631E-001;6.669030338525772E-002;-3.797475481405854E-003;1.989551819860935E-003;
2.402833333333334E+009;1.597338318824768E-001;6.394556909799576E-002;-3.376093227416277E-003;2.018647501245141E-003;
2.403000000000000E+009;1.611125022172928E-001;6.135379895567894E-002;-3.290760330855846E-003;2.193433232605457E-003;
2.403166666666667E+009;1.628720164299011E-001;5.892008915543556E-002;-3.150549018755555E-003;2.153732348233461E-003;
2.403333333333334E+009;1.641547083854675E-001;5.648013576865196E-002;-3.037001006305218E-003;2.233081962913275E-003;
2.403500000000000E+009;1.661705970764160E-001;5.406035855412483E-002;-2.933002077043057E-003;2.160280477255583E-003;
2.403666666666667E+009;1.678253859281540E-001;5.199076980352402E-002;-2.697126707062125E-003;2.048226539045572E-003;
2.403833333333334E+009;1.697217822074890E-001;4.980874806642532E-002;-2.932408358901739E-003;2.098379656672478E-003;
2.404000000000000E+009;1.711929440498352E-001;4.780774191021919E-002;-2.775307279080153E-003;1.998231513425708E-003;
2.404166666666667E+009;1.732384711503983E-001;4.611238092184067E-002;-2.662744140252471E-003;2.101977122947574E-003;
2.404333333333334E+009;1.748526543378830E-001;4.445459693670273E-002;-2.812617691233754E-003;2.109552035108209E-003;
2.404500000000000E+009;1.768049895763397E-001;4.288204014301300E-002;-2.765516750514507E-003;2.127556130290031E-003;
2.404666666666667E+009;1.785713732242584E-001;4.160812124609947E-002;-2.778178313747048E-003;2.167564583942294E-003;
2.404833333333334E+009;1.804307252168655E-001;4.034426063299179E-002;-2.660591853782535E-003;2.300950931385160E-003;
2.405000000000000E+009;1.820732653141022E-001;3.951200842857361E-002;-2.821312984451652E-003;2.294789534062147E-003;
2.405166666666667E+009;1.838341653347015E-001;3.881219774484634E-002;-2.853170270100236E-003;2.574572106823325E-003;
2.405333333333334E+009;1.853779405355454E-001;3.806809335947037E-002;-2.644646447151899E-003;2.772593405097723E-003;
2.405500000000000E+009;1.869988441467285E-001;3.775839880108833E-002;-2.670823363587260E-003;2.871911507099867E-003;
2.405666666666667E+009;1.886227279901505E-001;3.732489421963692E-002;-2.475487999618053E-003;2.988350344821811E-003;
2.405833333333334E+009;1.902137100696564E-001;3.696818277239800E-002;-2.415342954918742E-003;3.002209588885307E-003;
2.406000000000000E+009;1.913741827011108E-001;3.699450567364693E-002;-2.445562975481153E-003;3.163872752338648E-003;
2.406166666666667E+009;1.926491558551788E-001;3.697077184915543E-002;-2.136629773303866E-003;3.166181966662407E-003;
2.406333333333334E+009;1.937672346830368E-001;3.700856119394302E-002;-1.877574715763331E-003;3.265453269705176E-003;
2.406500000000000E+009;1.947804689407349E-001;3.715793043375015E-002;-1.904170494526625E-003;3.276395378634334E-003;
2.406666666666667E+009;1.957140117883682E-001;3.732720389962196E-002;-1.822534948587418E-003;3.230814589187503E-003;
2.406833333333334E+009;1.964231580495834E-001;3.763207048177719E-002;-1.761700958013535E-003;3.365698736160994E-003;
2.407000000000000E+009;1.969602406024933E-001;3.804338723421097E-002;-1.655329251661897E-003;3.199729602783918E-003;
2.407166666666667E+009;1.975183039903641E-001;3.812293335795403E-002;-1.668575452640653E-003;3.253779141232371E-003;
2.407333333333334E+009;1.977711468935013E-001;3.849370777606964E-002;-1.513079856522381E-003;3.410261590033770E-003;
2.407500000000000E+009;1.977152377367020E-001;3.892781212925911E-002;-1.420345623046160E-003;3.233833238482475E-003;
2.407666666666667E+009;1.979769468307495E-001;3.913284838199616E-002;-1.385427778586745E-003;3.361004637554288E-003;
2.407833333333334E+009;1.976768076419830E-001;3.941870853304863E-002;-1.566365361213684E-003;3.460231469944120E-003;
2.408000000000000E+009;1.975947916507721E-001;3.966801241040230E-002;-1.581475487910211E-003;3.537885611876845E-003;
2.408166666666667E+009;1.971075534820557E-001;3.961369022727013E-002;-1.448493218049407E-003;3.622234100475907E-003;
2.408333333333334E+009;1.967297196388245E-001;3.952297940850258E-002;-1.227850327268243E-003;3.703899681568146E-003;
2.408500000000000E+009;1.960345357656479E-001;3.961362689733505E-002;-1.205028500407934E-003;3.783277468755841E-003;
2.408666666666667E+009;1.954530924558640E-001;3.934434428811073E-002;-1.161731663160026E-003;3.917218651622534E-003;
2.408833333333334E+009;1.947038024663925E-001;3.901635110378265E-002;-9.343728888779879E-004;4.211750812828541E-003;
2.409000000000000E+009;1.936969012022018E-001;3.836095333099365E-002;-9.745354764163494E-004;4.273242317140102E-003;
2.409166666666667E+009;1.926049441099167E-001;3.793355822563171E-002;-8.591883233748376E-004;4.270162433385849E-003;
2.409333333333334E+009;1.916598379611969E-001;3.710006922483444E-002;-5.265976069495082E-004;4.299757536500692E-003;
2.409500000000000E+009;1.905044466257095E-001;3.605702146887779E-002;-5.057653761468828E-004;4.438092466443777E-003;
2.409666666666667E+009;1.892243623733521E-001;3.485172614455223E-002;-3.265614795964211E-004;4.656434990465641E-003;
2.409833333333334E+009;1.881382018327713E-001;3.384918347001076E-002;-3.460489097051323E-005;4.662056453526020E-003;
2.410000000000000E+009;1.869511008262634E-001;3.220102936029434E-002;2.359388236072846E-005;4.529722500592470E-003;
2.410166666666667E+009;1.857279241085053E-001;3.070373460650444E-002;3.006839833687991E-004;4.645492881536484E-003;
2.410333333333334E+009;1.846275776624680E-001;2.909365855157375E-002;6.045564077794552E-004;4.783177282661200E-003;
2.410500000000000E+009;1.833456456661224E-001;2.733315713703632E-002;7.014334551058710E-004;4.680322017520666E-003;
2.410666666666667E+009;1.822486668825150E-001;2.514833770692349E-002;9.287487482652068E-004;4.734100773930550E-003;
2.410833333333334E+009;1.814818531274796E-001;2.303528040647507E-002;1.054409774951637E-003;4.700049292296171E-003;
2.411000000000000E+009;1.804501265287399E-001;2.103496156632900E-002;1.304930541664362E-003;4.757240414619446E-003;
2.411166666666667E+009;1.795296370983124E-001;1.890611089766026E-002;1.517251483164728E-003;4.625324625521898E-003;
2.411333333333334E+009;1.787421703338623E-001;1.633920706808567E-002;1.750048948451877E-003;4.506564233452082E-003;
2.411500000000000E+009;1.778955906629562E-001;1.400226913392544E-002;1.835751812905073E-003;4.503679927438498E-003;
2.411666666666667E+009;1.777258813381195E-001;1.146593410521746E-002;1.994192367419601E-003;4.382572602480650E-003;
2.411833333333334E+009;1.771190166473389E-001;8.897343650460243E-003;2.165017649531364E-003;4.488083533942699E-003;
2.412000000000000E+009;1.770316660404205E-001;6.088225170969963E-003;2.388736233115196E-003;4.364021588116884E-003;
2.412166666666667E+009;1.770016402006149E-001;3.902225289493799E-003;2.612723503261805E-003;4.259618930518627E-003;
2.412333333333334E+009;1.771170943975449E-001;1.047012163326144E-003;2.699970500543714E-003;4.124679602682591E-003;
2.412500000000000E+009;1.772909760475159E-001;-1.338638714514673E-003;2.924014581367374E-003;3.990188706666231E-003;
2.412666666666667E+009;1.775803864002228E-001;-4.139780998229981E-003;3.188814735040069E-003;4.068215843290091E-003;
2.412833333333334E+009;1.782971173524857E-001;-6.809132639318705E-003;3.477812279015780E-003;3.808399895206094E-003;
2.413000000000000E+009;1.790757179260254E-001;-9.478149004280567E-003;3.608882892876864E-003;3.703083144500852E-003;
2.413166666666667E+009;1.797901690006256E-001;-1.208452787250280E-002;4.045274574309588E-003;3.338003996759653E-003;
2.413333333333334E+009;1.808879077434540E-001;-1.446372456848621E-002;3.999776206910610E-003;3.210517344996333E-003;
2.413500000000000E+009;1.816434413194656E-001;-1.692124269902706E-002;4.294848069548607E-003;2.975882031023502E-003;
2.413666666666667E+009;1.828851550817490E-001;-1.943021640181541E-002;4.536067601293325E-003;2.726158592849970E-003;
2.413833333333334E+009;1.839734315872192E-001;-2.155890688300133E-002;4.475836642086506E-003;2.333683427423239E-003;
2.414000000000000E+009;1.851904541254044E-001;-2.393343672156334E-002;4.649571143090725E-003;1.993869431316853E-003;
2.414166666666667E+009;1.865344196557999E-001;-2.581491880118847E-002;4.417669028043747E-003;1.733392011374235E-003;
2.414333333333334E+009;1.878804564476013E-001;-2.810680307447910E-002;4.432826768606901E-003;1.364534604363143E-003;
2.414500000000000E+009;1.892528980970383E-001;-2.988871559500694E-002;4.317571409046650E-003;1.153183286078274E-003;
2.414666666666667E+009;1.906199455261231E-001;-3.131197020411491E-002;4.304165486246347E-003;9.200873319059610E-004;
2.414833333333334E+009;1.920203566551209E-001;-3.293897584080696E-002;4.294550046324730E-003;6.398401455953717E-004;
2.415000000000000E+009;1.933111250400543E-001;-3.452514857053757E-002;4.133176524192095E-003;6.383832660503686E-004;
2.415166666666667E+009;1.948678493499756E-001;-3.579932823777199E-002;3.976813517510891E-003;2.810790902003646E-004;
2.415333333333334E+009;1.962655782699585E-001;-3.692315146327019E-002;3.759363433346152E-003;2.844194532372057E-004;
2.415500000000000E+009;1.977125704288483E-001;-3.779620304703713E-002;3.956270869821310E-003;7.230799383250997E-005;
2.415666666666667E+009;1.989571601152420E-001;-3.880826756358147E-002;3.909308463335037E-003;-3.665347321657464E-005;
2.415833333333334E+009;2.002049684524536E-001;-3.962074220180512E-002;3.738052677363157E-003;-5.293149661156349E-005;
2.416000000000000E+009;2.011784315109253E-001;-4.017624258995056E-002;3.662573173642159E-003;-4.010998527519405E-004;
2.416166666666667E+009;2.023176103830338E-001;-4.084132611751556E-002;3.573463996872306E-003;-5.619578296318650E-004;
2.416333333333334E+009;2.032716572284699E-001;-4.116390272974968E-002;3.406280186027288E-003;-4.795767890755087E-004;
2.416500000000000E+009;2.039911299943924E-001;-4.144621267914772E-002;3.188038244843483E-003;-5.657269502989948E-004;
2.416666666666667E+009;2.046507149934769E-001;-4.174227267503738E-002;3.086313372477889E-003;-8.793555898591876E-004;
2.416833333333334E+009;2.051236927509308E-001;-4.173427820205689E-002;3.062448231503367E-003;-8.375126635655761E-004;
2.417000000000000E+009;2.054516822099686E-001;-4.180934652686119E-002;2.850078977644444E-003;-8.639146108180285E-004;
2.417166666666667E+009;2.054327279329300E-001;-4.168586060404778E-002;2.755318069830537E-003;-1.002026256173849E-003;
2.417333333333334E+009;2.055589109659195E-001;-4.151368513703346E-002;2.649059519171715E-003;-8.894883212633431E-004;
2.417500000000000E+009;2.055413872003555E-001;-4.131721705198288E-002;2.374956617131829E-003;-9.274103795178235E-004;
2.417666666666667E+009;2.052592784166336E-001;-4.102156311273575E-002;2.274631289765239E-003;-7.766603957861662E-004;
2.417833333333334E+009;2.050397247076035E-001;-4.071486741304398E-002;2.241967711597681E-003;-7.118103676475585E-004;
2.418000000000000E+009;2.046385258436203E-001;-4.019445925951004E-002;2.213432919234037E-003;-6.389823975041509E-004;
2.418166666666667E+009;2.039526253938675E-001;-4.000486806035042E-002;2.066563349217176E-003;-6.962862098589540E-004;
2.418333333333334E+009;2.031707018613815E-001;-3.960150107741356E-002;2.246896503493190E-003;-5.366065306589007E-004;
2.418500000000000E+009;2.023533284664154E-001;-3.957405686378479E-002;2.197802299633622E-003;-6.690679001621902E-004;
2.418666666666667E+009;2.014698088169098E-001;-3.918423876166344E-002;2.135727088898420E-003;-5.819645011797547E-004;
2.418833333333334E+009;2.003170549869537E-001;-3.918426856398583E-002;2.301392611116171E-003;-5.163251189514995E-004;
2.419000000000000E+009;1.990064084529877E-001;-3.915395587682724E-002;2.266714116558433E-003;-4.392833216115832E-004;
2.419166666666667E+009;1.977727264165878E-001;-3.930074721574783E-002;2.287408802658320E-003;-6.186169921420515E-004;
2.419333333333334E+009;1.963323503732681E-001;-3.958351165056229E-002;2.284582471475005E-003;-5.073432694189251E-004;
2.419500000000000E+009;1.948092281818390E-001;-3.977344557642937E-002;2.261502202600241E-003;-5.443500122055411E-004;
2.419666666666667E+009;1.933072954416275E-001;-4.039002954959869E-002;2.422047778964043E-003;-4.015476151835173E-004;
2.419833333333334E+009;1.914738118648529E-001;-4.094777256250382E-002;2.299368148669601E-003;-4.742455494124442E-004;
2.420000000000000E+009;1.897998452186585E-001;-4.165675863623619E-002;2.215054584667087E-003;-5.196020938456059E-004;
2.420166666666667E+009;1.881363093852997E-001;-4.239396005868912E-002;2.447723411023617E-003;-6.073221447877586E-004;
2.420333333333334E+009;1.862820833921433E-001;-4.354999586939812E-002;2.466068370267749E-003;-5.274849827401340E-004;
2.420500000000000E+009;1.843777149915695E-001;-4.464398324489594E-002;2.393302274867892E-003;-6.085903150960803E-004;
2.420666666666667E+009;1.826242357492447E-001;-4.571972414851189E-002;2.600496634840965E-003;-7.438175962306559E-004;
2.420833333333334E+009;1.807451248168945E-001;-4.721372574567795E-002;2.549942117184401E-003;-6.566729280166328E-004;
2.421000000000000E+009;1.790061891078949E-001;-4.858392104506493E-002;2.782969037070870E-003;-6.420201389119029E-004;
2.421166666666667E+009;1.773611307144165E-001;-5.039978399872780E-002;2.734876470640302E-003;-7.538280915468931E-004;
2.421333333333334E+009;1.756414026021957E-001;-5.198782309889793E-002;2.794422907754779E-003;-7.874990114942193E-004;
2.421500000000000E+009;1.741419285535812E-001;-5.377042666077614E-002;2.963653998449445E-003;-9.845820022746921E-004;
2.421666666666667E+009;1.727287918329239E-001;-5.564095079898834E-002;2.965148072689772E-003;-1.114235725253820E-003;
2.421833333333334E+009;1.712407320737839E-001;-5.781749635934830E-002;3.033034969121218E-003;-1.091054757125676E-003;
2.422000000000000E+009;1.697791814804077E-001;-5.976730957627296E-002;3.064569085836411E-003;-1.382879563607276E-003;
2.422166666666667E+009;1.689409464597702E-001;-6.192242354154587E-002;3.017587354406714E-003;-1.557299168780446E-003;
2.422333333333334E+009;1.674355417490006E-001;-6.410612165927887E-002;3.092599101364613E-003;-1.575010130181909E-003;
2.422500000000000E+009;1.665505617856979E-001;-6.623144447803497E-002;3.212084062397480E-003;-1.749478979036212E-003;
2.422666666666667E+009;1.657181531190872E-001;-6.841800361871719E-002;3.065996104851365E-003;-1.868356601335108E-003;
2.422833333333334E+009;1.650321334600449E-001;-7.077635824680328E-002;3.040440846234560E-003;-2.018157858401537E-003;
2.423000000000000E+009;1.644428968429565E-001;-7.294142246246338E-002;2.993093105033040E-003;-2.116918331012130E-003;
2.423166666666667E+009;1.640569567680359E-001;-7.525619864463806E-002;2.999224234372377E-003;-2.233478007838130E-003;
2.423333333333334E+009;1.636050939559937E-001;-7.742691785097122E-002;2.833117265254259E-003;-2.468751044943929E-003;
2.423500000000000E+009;1.634274870157242E-001;-7.945698499679565E-002;2.819850808009505E-003;-2.274006837978959E-003;
2.423666666666667E+009;1.635133475065231E-001;-8.165957778692246E-002;2.732902998104692E-003;-2.617551479488611E-003;
2.423833333333334E+009;1.633074879646301E-001;-8.368773013353348E-002;2.721320372074843E-003;-2.678599674254656E-003;
2.424000000000000E+009;1.634184420108795E-001;-8.573523163795471E-002;2.703345380723476E-003;-3.074610838666558E-003;
2.424166666666667E+009;1.636739522218704E-001;-8.742619305849075E-002;2.804417163133621E-003;-3.138031810522080E-003;
2.424333333333334E+009;1.638333946466446E-001;-8.931172639131546E-002;2.378130797296763E-003;-3.307674080133438E-003;
2.424500000000000E+009;1.642126441001892E-001;-9.139084815979004E-002;2.442442579194903E-003;-3.550020046532154E-003;
2.424666666666667E+009;1.645535826683044E-001;-9.295883029699326E-002;2.150589367374778E-003;-3.774821292608976E-003;
2.424833333333334E+009;1.653137058019638E-001;-9.459917247295380E-002;2.032687189057469E-003;-3.872825996950269E-003;
2.425000000000000E+009;1.658716201782227E-001;-9.594620764255524E-002;1.811431022360921E-003;-4.074905533343554E-003;
2.425166666666667E+009;1.661270856857300E-001;-9.727494418621063E-002;1.714339014142752E-003;-4.151871427893639E-003;
2.425333333333334E+009;1.666858196258545E-001;-9.839848428964615E-002;1.447337795980275E-003;-4.140754230320454E-003;
2.425500000000000E+009;1.672030538320541E-001;-9.962216019630432E-002;1.229682471603155E-003;-4.330041352659464E-003;
2.425666666666667E+009;1.679036915302277E-001;-1.005123332142830E-001;9.784417925402522E-004;-4.362951964139938E-003;
2.425833333333334E+009;1.682992130517960E-001;-1.015143394470215E-001;6.664297543466091E-004;-4.287457093596458E-003;
2.426000000000000E+009;1.690570861101151E-001;-1.020585745573044E-001;5.109768244437873E-004;-4.294683691114187E-003;
2.426166666666667E+009;1.697009652853012E-001;-1.027070507407188E-001;3.404048620723188E-004;-4.350060597062111E-003;
2.426333333333334E+009;1.699918955564499E-001;-1.033187210559845E-001;-9.030958608491346E-006;-4.316289443522692E-003;
2.426500000000000E+009;1.705656200647354E-001;-1.035842224955559E-001;-1.143288827734068E-004;-4.156464710831642E-003;
2.426666666666667E+009;1.710182428359985E-001;-1.039678007364273E-001;-2.830891753546894E-004;-4.113207105547190E-003;
2.426833333333334E+009;1.715914607048035E-001;-1.041747629642487E-001;-5.062163108959794E-004;-4.156891256570816E-003;
2.427000000000000E+009;1.717813462018967E-001;-1.043673530220985E-001;-5.955708911642432E-004;-4.007100127637386E-003;
2.427166666666667E+009;1.720636337995529E-001;-1.044505313038826E-001;-6.404648884199560E-004;-4.014666657894850E-003;
2.427333333333334E+009;1.722016632556915E-001;-1.046376675367355E-001;-8.045661961659789E-004;-3.928169142454863E-003;
2.427500000000000E+009;1.721596717834473E-001;-1.047170460224152E-001;-1.000858726911247E-003;-3.912289161235094E-003;
2.427666666666667E+009;1.721400469541550E-001;-1.046968251466751E-001;-1.170240575447679E-003;-3.752005053684115E-003;
2.427833333333334E+009;1.718852818012238E-001;-1.047167330980301E-001;-1.318078488111496E-003;-3.727576928213239E-003;
