# Version 1.00
#
freq[Hz];re:Trc1_S11;im:Trc1_S11;re:Trc2_S21;im:Trc2_S21;
2.400000000000000E+009;1.558461189270020E-001;1.108912751078606E-001;-4.684798419475555E-003;-3.749875759240240E-004;
2.400166666666667E+009;1.551150679588318E-001;1.085438579320908E-001;-4.731185268610716E-003;-2.991789369843900E-004;
2.400333333333334E+009;1.548788100481033E-001;1.062219738960266E-001;-4.633431322872639E-003;6.459240921685705E-006;
2.400500000000000E+009;1.546729207038879E-001;1.034898385405541E-001;-4.575663246214390E-003;2.977190597448498E-004;
2.400666666666667E+009;1.544183790683746E-001;1.012736186385155E-001;-4.541178233921528E-003;4.601988475769758E-004;
2.400833333333334E+009;1.540929526090622E-001;9.819674491882324E-002;-4.604864399880171E-003;6.543810595758259E-004;
2.401000000000000E+009;1.539673656225205E-001;9.546339511871338E-002;-4.436724819242954E-003;8.017085492610931E-004;
2.401166666666667E+009;1.536560952663422E-001;9.245789051055908E-002;-4.326043650507927E-003;9.633930167183280E-004;
2.401333333333334E+009;1.539004892110825E-001;8.962561935186386E-002;-4.284550435841084E-003;1.074733678251505E-003;
2.401500000000000E+009;1.540006846189499E-001;8.664941042661667E-002;-4.020866006612778E-003;1.134614576585591E-003;
2.401666666666667E+009;1.540912538766861E-001;8.359257131814957E-002;-4.088182933628559E-003;1.360116875730455E-003;
2.401833333333334E+009;1.543638408184052E-001;8.066321909427643E-002;-3.992044832557440E-003;1.469210255891085E-003;
2.402000000000000E+009;1.550915241241455E-001;7.778828591108322E-002;-3.774985903874040E-003;1.517241355031729E-003;
2.402166666666667E+009;1.557376086711884E-001;7.495083659887314E-002;-3.965205047279596E-003;1.679893699474633E-003;
2.402333333333334E+009;1.565548032522202E-001;7.203278690576553E-002;-3.872621804475784E-003;1.738208113238215E-003;
2.402500000000000E+009;1.574608087539673E-001;6.906439363956451E-002;-3.639876144006848E-003;1.886360929347575E-003;
2.402666666666667E+009;1.585180908441544E-001;6.665410101413727E-002;-3.476340090855956E-003;2.004321198910475E-003;
2.402833333333334E+009;1.597345322370529E-001;6.392393261194229E-002;-3.385954070836306E-003;2.240537200123072E-003;
2.403000000000000E+009;1.611406654119492E-001;6.154213100671768E-002;-3.251923481002450E-003;2.144238445907831E-003;
2.403166666666667E+009;1.627908796072006E-001;5.888602510094643E-002;-3.172544762492180E-003;2.021469408646226E-003;
2.403333333333334E+009;1.642568856477737E-001;5.640688166022301E-002;-3.009080654010177E-003;2.231458434835076E-003;
2.403500000000000E+009;1.659822762012482E-001;5.411182343959808E-002;-2.893301192671061E-003;2.165588084608316E-003;
2.403666666666667E+009;1.679098010063171E-001;5.190788209438324E-002;-2.833418082445860E-003;2.327006543055177E-003;
2.403833333333334E+009;1.696835011243820E-001;4.971195757389069E-002;-2.613788703456521E-003;2.367664128541946E-003;
2.404000000000000E+009;1.712097525596619E-001;4.783922061324120E-002;-2.615438541397452E-003;2.062361687421799E-003;
2.404166666666667E+009;1.732843518257141E-001;4.616213589906693E-002;-2.737316070124507E-003;2.141093835234642E-003;
2.404333333333334E+009;1.749009042978287E-001;4.455381259322166E-002;-2.831552876159549E-003;2.028028015047312E-003;
2.404500000000000E+009;1.766440272331238E-001;4.263915866613388E-002;-2.726807491853833E-003;2.201328054070473E-003;
2.404666666666667E+009;1.785018444061279E-001;4.159603267908096E-002;-2.755407476797700E-003;2.119828015565872E-003;
2.404833333333334E+009;1.804598569869995E-001;4.028593376278877E-002;-2.856413600966334E-003;2.430794993415475E-003;
2.405000000000000E+009;1.819788366556168E-001;3.953980654478073E-002;-2.865903079509735E-003;2.539508510380983E-003;
2.405166666666667E+009;1.836273968219757E-001;3.866815939545631E-002;-2.660335972905159E-003;2.489304635673761E-003;
2.405333333333334E+009;1.854500919580460E-001;3.823766857385635E-002;-2.706060651689768E-003;2.740046009421349E-003;
2.405500000000000E+009;1.869674324989319E-001;3.777049481868744E-002;-2.658176934346557E-003;3.052109852433205E-003;
2.405666666666667E+009;1.884195506572723E-001;3.727099299430847E-002;-2.497002715244889E-003;2.900630235671997E-003;
2.405833333333334E+009;1.899788826704025E-001;3.724950179457665E-002;-2.472895896062255E-003;3.162209875881672E-003;
2.406000000000000E+009;1.912413090467453E-001;3.700834140181541E-002;-2.243267139419913E-003;3.049968509003520E-003;
2.406166666666667E+009;1.925606131553650E-001;3.685279935598373E-002;-2.200863789767027E-003;3.342972369864583E-003;
2.406333333333334E+009;1.936980932950974E-001;3.715069219470024E-002;-1.987596508115530E-003;3.410748671740294E-003;
2.406500000000000E+009;1.946200877428055E-001;3.722147643566132E-002;-1.708679832518101E-003;3.330058883875608E-003;
2.406666666666667E+009;1.955696791410446E-001;3.747390955686569E-002;-1.787661109119654E-003;3.402160247787833E-003;
2.406833333333334E+009;1.964005529880524E-001;3.763075917959213E-002;-1.658301218412817E-003;3.396759042516351E-003;
2.407000000000000E+009;1.969304978847504E-001;3.809855878353119E-002;-1.587091130204499E-003;3.352349391207099E-003;
2.407166666666667E+009;1.974800378084183E-001;3.805817291140556E-002;-1.537521136924624E-003;3.316816175356507E-003;
2.407333333333334E+009;1.975757181644440E-001;3.844975307583809E-002;-1.531971502117813E-003;3.467226866632700E-003;
2.407500000000000E+009;1.978143453598023E-001;3.906103968620300E-002;-1.479210448451340E-003;3.357700770720840E-003;
2.407666666666667E+009;1.979077160358429E-001;3.917659074068070E-002;-1.404232461936772E-003;3.468148643150926E-003;
2.407833333333334E+009;1.975832581520081E-001;3.939926996827126E-002;-1.335851964540780E-003;3.545790677890182E-003;
2.408000000000000E+009;1.976192444562912E-001;3.965106979012489E-002;-1.457012374885380E-003;3.631284693256021E-003;
2.408166666666667E+009;1.970464587211609E-001;3.961138427257538E-002;-1.305994694121182E-003;3.860010765492916E-003;
2.408333333333334E+009;1.966000497341156E-001;3.951052203774452E-002;-1.111297518946230E-003;3.841322613880038E-003;
2.408500000000000E+009;1.960512995719910E-001;3.963953629136086E-002;-1.077161869034171E-003;3.904246026650071E-003;
2.408666666666667E+009;1.954600363969803E-001;3.926312923431397E-002;-1.046061632223427E-003;4.076571203768253E-003;
2.408833333333334E+009;1.947311908006668E-001;3.899832069873810E-002;-9.329851600341499E-004;4.164068493992090E-003;
2.409000000000000E+009;1.936673969030380E-001;3.839618340134621E-002;-7.781842141412199E-004;4.187608603388071E-003;
2.409166666666667E+009;1.927116066217423E-001;3.786731138825417E-002;-7.248314213939011E-004;4.231573082506657E-003;
2.409333333333334E+009;1.916042268276215E-001;3.702224791049957E-002;-5.599531577900052E-004;4.371980205178261E-003;
2.409500000000000E+009;1.904513835906982E-001;3.612134978175163E-002;-4.044839879497886E-004;4.516001790761948E-003;
2.409666666666667E+009;1.892633587121964E-001;3.488960489630699E-002;-1.064783282345161E-004;4.534568637609482E-003;
2.409833333333334E+009;1.880523860454559E-001;3.365955129265785E-002;-1.197415404021740E-004;4.509704187512398E-003;
2.410000000000000E+009;1.869094520807266E-001;3.235203027725220E-002;2.257040614495054E-004;4.658409394323826E-003;
2.410166666666667E+009;1.856684833765030E-001;3.075204230844975E-002;2.881860709749162E-004;4.747162573039532E-003;
2.410333333333334E+009;1.846245825290680E-001;2.904814481735230E-002;5.739050684496760E-004;4.610543604940176E-003;
2.410500000000000E+009;1.834108531475067E-001;2.735137753188610E-002;6.690628943033516E-004;4.634990822523832E-003;
2.410666666666667E+009;1.822345107793808E-001;2.530349418520927E-002;9.755205246619880E-004;4.630356561392546E-003;
2.410833333333334E+009;1.813643723726273E-001;2.315725572407246E-002;1.083449693396688E-003;4.604425746947527E-003;
2.411000000000000E+009;1.802716702222824E-001;2.098980173468590E-002;1.326858648099005E-003;4.575678613036871E-003;
2.411166666666667E+009;1.794910132884979E-001;1.881649531424046E-002;1.594525296241045E-003;4.692560527473688E-003;
2.411333333333334E+009;1.787526607513428E-001;1.632020436227322E-002;1.657462678849697E-003;4.629197064787149E-003;
2.411500000000000E+009;1.781023591756821E-001;1.396421622484922E-002;1.810517627745867E-003;4.448709543794394E-003;
2.411666666666667E+009;1.776780635118485E-001;1.152546145021915E-002;1.995487371459603E-003;4.473831970244646E-003;
2.411833333333334E+009;1.772845238447189E-001;9.055467322468758E-003;2.150854095816612E-003;4.450151696801186E-003;
2.412000000000000E+009;1.768829524517059E-001;6.435193587094545E-003;2.478548325598240E-003;4.332957789301872E-003;
2.412166666666667E+009;1.769647598266602E-001;3.662480507045984E-003;2.662366954609752E-003;4.288360010832548E-003;
2.412333333333334E+009;1.772503107786179E-001;1.189187052659690E-003;2.787566045299172E-003;4.134414717555046E-003;
2.412500000000000E+009;1.773780882358551E-001;-1.494923024438322E-003;3.061168128624558E-003;4.053744953125715E-003;
2.412666666666667E+009;1.778528839349747E-001;-4.188818857073784E-003;3.159893676638603E-003;4.027246497571468E-003;
2.412833333333334E+009;1.784486174583435E-001;-6.887379568070173E-003;3.521026112139225E-003;3.956574015319347E-003;
2.413000000000000E+009;1.791242361068726E-001;-9.219673462212086E-003;3.515154821798205E-003;3.697544569149613E-003;
2.413166666666667E+009;1.797748804092407E-001;-1.181511487811804E-002;4.001740831881762E-003;3.295970847830176E-003;
2.413333333333334E+009;1.809211969375610E-001;-1.428745780140162E-002;4.194514360278845E-003;3.285879269242287E-003;
2.413500000000000E+009;1.816422641277313E-001;-1.689272001385689E-002;4.364409018307924E-003;2.937837969511747E-003;
2.413666666666667E+009;1.827969551086426E-001;-1.927258074283600E-002;4.500916693359613E-003;2.560212044045329E-003;
2.413833333333334E+009;1.840654015541077E-001;-2.156415767967701E-002;4.527769051492214E-003;2.251815749332309E-003;
2.414000000000000E+009;1.850858330726624E-001;-2.383388206362724E-002;4.484684206545353E-003;1.945162774063647E-003;
2.414166666666667E+009;1.867694705724716E-001;-2.580088004469872E-002;4.603998269885778E-003;1.678872387856245E-003;
2.414333333333334E+009;1.878166943788528E-001;-2.803339809179306E-002;4.535639192909002E-003;1.372736180201173E-003;
2.414500000000000E+009;1.893517225980759E-001;-2.970216423273087E-002;4.510216880589724E-003;1.137376646511257E-003;
2.414666666666667E+009;1.906559616327286E-001;-3.147272765636444E-002;4.332830663770437E-003;8.570256177335978E-004;
2.414833333333334E+009;1.920544505119324E-001;-3.305852785706520E-002;4.235359374433756E-003;7.373418193310499E-004;
2.415000000000000E+009;1.933593153953552E-001;-3.449248522520065E-002;4.305032081902027E-003;3.534365387167782E-004;
2.415166666666667E+009;1.949805170297623E-001;-3.584791719913483E-002;4.138844087719917E-003;3.046028723474592E-004;
2.415333333333334E+009;1.963465362787247E-001;-3.691099956631661E-002;4.036182537674904E-003;1.682513538980857E-004;
2.415500000000000E+009;1.976488828659058E-001;-3.773022443056107E-002;3.893710440024734E-003;4.023656583740376E-005;
2.415666666666667E+009;1.989359408617020E-001;-3.864688426256180E-002;3.972510807216167E-003;-8.829917351249605E-005;
2.415833333333334E+009;2.001642584800720E-001;-3.946879506111145E-002;3.772813128307462E-003;-2.349540591239929E-004;
2.416000000000000E+009;2.013076841831207E-001;-4.014359787106514E-002;3.753470024093986E-003;-3.843211743514985E-004;
2.416166666666667E+009;2.023427784442902E-001;-4.073243215680122E-002;3.613129723817110E-003;-5.396475316956639E-004;
2.416333333333334E+009;2.032494544982910E-001;-4.118293523788452E-002;3.416653955355287E-003;-6.358750397339463E-004;
2.416500000000000E+009;2.040557414293289E-001;-4.123999550938606E-002;3.296718234196305E-003;-7.166615687310696E-004;
2.416666666666667E+009;2.046736627817154E-001;-4.172299429774284E-002;3.216817276552320E-003;-8.360155625268817E-004;
2.416833333333334E+009;2.050955146551132E-001;-4.174792021512985E-002;3.020101226866245E-003;-1.058924128301442E-003;
2.417000000000000E+009;2.054508477449417E-001;-4.184602200984955E-002;2.911244053393602E-003;-1.033060369081795E-003;
2.417166666666667E+009;2.055839002132416E-001;-4.160710424184799E-002;2.657945733517408E-003;-1.003569806925952E-003;
2.417333333333334E+009;2.055893391370773E-001;-4.136777669191361E-002;2.579219406470656E-003;-9.993232088163495E-004;
2.417500000000000E+009;2.055583894252777E-001;-4.130460321903229E-002;2.373168012127280E-003;-1.022379728965461E-003;
2.417666666666667E+009;2.053178697824478E-001;-4.092061892151833E-002;2.249493962153792E-003;-8.716465672478080E-004;
2.417833333333334E+009;2.050992846488953E-001;-4.061622172594070E-002;2.379606245085597E-003;-9.067239006981254E-004;
2.418000000000000E+009;2.045630216598511E-001;-4.016212001442909E-002;2.240646630525589E-003;-7.355414563789964E-004;
2.418166666666667E+009;2.040028125047684E-001;-3.998219594359398E-002;2.225478878244758E-003;-7.963823736645281E-004;
2.418333333333334E+009;2.032306939363480E-001;-3.962238132953644E-002;2.258783672004938E-003;-7.094580214470625E-004;
2.418500000000000E+009;2.023992985486984E-001;-3.951994702219963E-002;2.152734901756048E-003;-5.825971020385623E-004;
2.418666666666667E+009;2.015287578105927E-001;-3.914555162191391E-002;2.165422774851322E-003;-6.856275140307844E-004;
2.418833333333334E+009;2.003082484006882E-001;-3.916143253445625E-002;2.284274902194738E-003;-5.727705429308116E-004;
2.419000000000000E+009;1.989683210849762E-001;-3.918518498539925E-002;2.223199000582099E-003;-6.372547359205782E-004;
2.419166666666667E+009;1.978839188814163E-001;-3.922855854034424E-002;2.147685270756483E-003;-6.701624370180070E-004;
2.419333333333334E+009;1.964459270238876E-001;-3.950000926852226E-002;2.279627369716764E-003;-6.661603110842407E-004;
2.419500000000000E+009;1.948200017213821E-001;-3.975152969360352E-002;2.336910227313638E-003;-6.492762477137148E-004;
2.419666666666667E+009;1.933174878358841E-001;-4.023646935820580E-002;2.386308973655105E-003;-6.324265268631280E-004;
2.419833333333334E+009;1.915919035673142E-001;-4.085432738065720E-002;2.341638552024961E-003;-6.236279732547700E-004;
2.420000000000000E+009;1.898065954446793E-001;-4.154174029827118E-002;2.259128261357546E-003;-6.179049378260970E-004;
2.420166666666667E+009;1.879482269287109E-001;-4.245440289378166E-002;2.374990377575159E-003;-7.006789091974497E-004;
2.420333333333334E+009;1.862410902976990E-001;-4.340852797031403E-002;2.574737649410963E-003;-6.609317497350276E-004;
2.420500000000000E+009;1.843803226947784E-001;-4.460072517395020E-002;2.608873415738344E-003;-6.630588904954493E-004;
2.420666666666667E+009;1.825983226299286E-001;-4.558248072862625E-002;2.620465820655227E-003;-6.669671856798232E-004;
2.420833333333334E+009;1.807134598493576E-001;-4.706997796893120E-002;2.631749724969268E-003;-7.615134236402810E-004;
2.421000000000000E+009;1.791466176509857E-001;-4.868484288454056E-002;2.677892800420523E-003;-7.230500923469663E-004;
2.421166666666667E+009;1.773709505796433E-001;-5.041082948446274E-002;2.972127171233296E-003;-8.929932955652475E-004;
2.421333333333334E+009;1.756320893764496E-001;-5.188444629311562E-002;2.960566198453307E-003;-8.056554943323135E-004;
2.421500000000000E+009;1.741270869970322E-001;-5.386368557810783E-002;2.958161290735006E-003;-1.142494729720056E-003;
2.421666666666667E+009;1.726432740688324E-001;-5.563979968428612E-002;2.990250941365957E-003;-1.224930048920214E-003;
2.421833333333334E+009;1.711878925561905E-001;-5.757727846503258E-002;3.073292318731546E-003;-1.278840121813119E-003;
2.422000000000000E+009;1.698547303676605E-001;-5.970528349280357E-002;3.039989387616515E-003;-1.489267451688647E-003;
2.422166666666667E+009;1.687990427017212E-001;-6.193746626377106E-002;3.194764256477356E-003;-1.593788969330490E-003;
2.422333333333334E+009;1.675935536623001E-001;-6.415442377328873E-002;3.063713433220983E-003;-1.678521744906902E-003;
2.422500000000000E+009;1.666135638952255E-001;-6.624402105808258E-002;2.942984225228429E-003;-1.887937309220433E-003;
2.422666666666667E+009;1.657778322696686E-001;-6.844243407249451E-002;3.002508077770472E-003;-2.015538047999144E-003;
2.422833333333334E+009;1.650312989950180E-001;-7.072364538908005E-002;3.010879503563047E-003;-2.103313803672791E-003;
2.423000000000000E+009;1.646087765693665E-001;-7.308990508317947E-002;2.742575248703361E-003;-2.211717190220952E-003;
2.423166666666667E+009;1.639820188283920E-001;-7.513494044542313E-002;2.884177258238196E-003;-2.268513897433877E-003;
2.423333333333334E+009;1.637288182973862E-001;-7.746770232915878E-002;2.838085638359189E-003;-2.537343651056290E-003;
2.423500000000000E+009;1.634541600942612E-001;-7.945942878723145E-002;2.753379521891475E-003;-2.529571531340480E-003;
2.423666666666667E+009;1.634478867053986E-001;-8.159357309341431E-002;2.769805490970612E-003;-2.760211937129498E-003;
2.423833333333334E+009;1.633767783641815E-001;-8.364957571029663E-002;2.638897858560085E-003;-2.737106755375862E-003;
2.424000000000000E+009;1.634798794984818E-001;-8.567991852760315E-002;2.701975172385573E-003;-3.069665515795350E-003;
2.424166666666667E+009;1.635912656784058E-001;-8.750341087579727E-002;2.631894312798977E-003;-3.291696775704622E-003;
2.424333333333334E+009;1.637511849403381E-001;-8.941800892353058E-002;2.476841211318970E-003;-3.423596732318401E-003;
2.424500000000000E+009;1.643733978271484E-001;-9.131859242916107E-002;2.296724822372198E-003;-3.649615449830890E-003;
2.424666666666667E+009;1.646288484334946E-001;-9.294300526380539E-002;2.197982976213098E-003;-3.720963839441538E-003;
2.424833333333334E+009;1.651821732521057E-001;-9.438750892877579E-002;2.042446983978152E-003;-4.027903079986572E-003;
2.425000000000000E+009;1.657957583665848E-001;-9.601480513811112E-002;1.827409607358277E-003;-4.081156104803085E-003;
2.425166666666667E+009;1.661671400070190E-001;-9.731056541204453E-002;1.422315835952759E-003;-4.062766674906015E-003;
2.425333333333334E+009;1.667063385248184E-001;-9.844206273555756E-002;1.358475768938661E-003;-4.204760771244764E-003;
2.425500000000000E+009;1.672557741403580E-001;-9.964624047279358E-002;1.057009445503354E-003;-4.332851618528366E-003;
2.425666666666667E+009;1.678164899349213E-001;-1.004598364233971E-001;7.737125270068646E-004;-4.302641842514277E-003;
2.425833333333334E+009;1.684082448482513E-001;-1.014619171619415E-001;4.915313329547644E-004;-4.396145697683096E-003;
2.426000000000000E+009;1.690120249986649E-001;-1.019941866397858E-001;3.829874040093273E-004;-4.331775940954685E-003;
2.426166666666667E+009;1.697736382484436E-001;-1.026908010244370E-001;2.915236691478640E-004;-4.337847232818604E-003;
2.426333333333334E+009;1.700884401798248E-001;-1.032422482967377E-001;2.030665382335428E-005;-4.226391669362783E-003;
2.426500000000000E+009;1.706103086471558E-001;-1.035946905612946E-001;-2.275080769322813E-004;-4.245562478899956E-003;
2.426666666666667E+009;1.710949391126633E-001;-1.039345785975456E-001;-3.940119931939989E-004;-4.232123959809542E-003;
2.426833333333334E+009;1.715527623891830E-001;-1.042060106992722E-001;-6.084776832722127E-004;-4.154644906520844E-003;
2.427000000000000E+009;1.718032360076904E-001;-1.044355258345604E-001;-6.605397211387754E-004;-4.061895422637463E-003;
2.427166666666667E+009;1.720297336578369E-001;-1.044441908597946E-001;-8.888672455213964E-004;-3.825420280918479E-003;
2.427333333333334E+009;1.721593141555786E-001;-1.047031581401825E-001;-9.528675582259893E-004;-3.855896182358265E-003;
2.427500000000000E+009;1.721062362194061E-001;-1.047858521342278E-001;-1.087640179321170E-003;-3.871389664709568E-003;
2.427666666666667E+009;1.720567643642426E-001;-1.047551184892654E-001;-1.214161631651223E-003;-3.902907483279705E-003;
2.427833333333334E+009;1.718703508377075E-001;-1.047098115086556E-001;-1.272467314265668E-003;-3.835509996861219E-003;
