# Version 1.00
#
freq[Hz];re:Trc1_S11;im:Trc1_S11;re:Trc2_S21;im:Trc2_S21;
2.400000000000000E+009;1.556789726018906E-001;1.108666807413101E-001;-4.708027001470327E-003;-3.346656158100814E-004;
2.400166666666667E+009;1.551373004913330E-001;1.085323393344879E-001;-4.729091189801693E-003;-3.612171567510814E-004;
2.400333333333334E+009;1.550026983022690E-001;1.063171774148941E-001;-4.653601907193661E-003;-6.467427010647953E-005;
2.400500000000000E+009;1.544692516326904E-001;1.036420539021492E-001;-4.586006514728069E-003;1.887233956949785E-004;
2.400666666666667E+009;1.544158607721329E-001;1.010878086090088E-001;-4.639744292944670E-003;4.115741758141667E-004;
2.400833333333334E+009;1.539897620677948E-001;9.829363971948624E-002;-4.573135636746883E-003;5.141602596268058E-004;
2.401000000000000E+009;1.538971364498138E-001;9.546749293804169E-002;-4.525363445281982E-003;9.025975596159697E-004;
2.401166666666667E+009;1.537397354841232E-001;9.252100437879562E-002;-4.407873377203941E-003;7.952344021759927E-004;
2.401333333333334E+009;1.539745479822159E-001;8.942847698926926E-002;-4.156170412898064E-003;1.133524929173291E-003;
2.401500000000000E+009;1.542327404022217E-001;8.655768632888794E-002;-4.339912906289101E-003;1.165797119028866E-003;
2.401666666666667E+009;1.542216241359711E-001;8.359193056821823E-002;-4.084383137524128E-003;1.404705224558711E-003;
2.401833333333334E+009;1.546131372451782E-001;8.070030063390732E-002;-4.023965448141098E-003;1.518385368399322E-003;
2.402000000000000E+009;1.550990790128708E-001;7.759658992290497E-002;-3.995221573859453E-003;1.584889017976821E-003;
2.402166666666667E+009;1.557704359292984E-001;7.477861642837524E-002;-3.847382264211774E-003;1.820728881284595E-003;
2.402333333333334E+009;1.565257906913757E-001;7.189554721117020E-002;-3.478303551673889E-003;1.725635956972837E-003;
2.402500000000000E+009;1.576504409313202E-001;6.931685656309128E-002;-3.454631427302957E-003;1.803771709091961E-003;
2.402666666666667E+009;1.586703807115555E-001;6.666332483291626E-002;-3.431173739954829E-003;1.866936567239463E-003;
2.402833333333334E+009;1.599995642900467E-001;6.389583647251129E-002;-3.315191715955734E-003;2.158982679247856E-003;
2.403000000000000E+009;1.613769531250000E-001;6.133733317255974E-002;-3.091440768912435E-003;2.133128931745887E-003;
2.403166666666667E+009;1.629509180784226E-001;5.889155715703964E-002;-2.881838241592050E-003;2.293380675837398E-003;
2.403333333333334E+009;1.643068641424179E-001;5.634003877639771E-002;-2.871843753382564E-003;2.113356953486800E-003;
2.403500000000000E+009;1.663330346345902E-001;5.407617241144180E-002;-2.722118282690644E-003;2.187153557315469E-003;
2.403666666666667E+009;1.679401844739914E-001;5.181555822491646E-002;-2.715702168643475E-003;2.272785874083638E-003;
2.403833333333334E+009;1.695938408374786E-001;4.975669831037521E-002;-2.581456908956170E-003;1.951663289219141E-003;
2.404000000000000E+009;1.713057905435562E-001;4.777756705880165E-002;-2.571121323853731E-003;2.118197502568364E-003;
2.404166666666667E+009;1.730612069368362E-001;4.604864493012428E-002;-2.652757102623582E-003;2.210030332207680E-003;
2.404333333333334E+009;1.750397533178330E-001;4.428371042013168E-002;-2.627130597829819E-003;2.020075451582670E-003;
2.404500000000000E+009;1.768207997083664E-001;4.279971867799759E-002;-2.583056222647429E-003;2.137076342478395E-003;
2.404666666666667E+009;1.785764098167419E-001;4.151101410388947E-002;-2.647634828463197E-003;2.070677233859897E-003;
2.404833333333334E+009;1.804299056529999E-001;4.033955931663513E-002;-2.668113680556417E-003;2.255501691251993E-003;
2.405000000000000E+009;1.820069551467896E-001;3.965025395154953E-002;-2.899658633396030E-003;2.362208440899849E-003;
2.405166666666667E+009;1.838493049144745E-001;3.886554762721062E-002;-2.719951327890158E-003;2.359230071306229E-003;
2.405333333333334E+009;1.854357719421387E-001;3.811836987733841E-002;-2.702618949115276E-003;2.835863037034869E-003;
2.405500000000000E+009;1.870235800743103E-001;3.776736930012703E-002;-2.637486904859543E-003;2.886824309825897E-003;
2.405666666666667E+009;1.885202080011368E-001;3.735852241516113E-002;-2.396676922217012E-003;2.998002804815769E-003;
2.405833333333334E+009;1.899757385253906E-001;3.712035343050957E-002;-2.394032431766391E-003;3.086707321926951E-003;
2.406000000000000E+009;1.912373155355454E-001;3.709256276488304E-002;-2.223873510956764E-003;3.115865401923657E-003;
2.406166666666667E+009;1.925746351480484E-001;3.685634210705757E-002;-1.920453156344593E-003;3.266259795054793E-003;
2.406333333333334E+009;1.937644034624100E-001;3.699017316102982E-002;-2.057485980913043E-003;3.314740024507046E-003;
2.406500000000000E+009;1.945914477109909E-001;3.716700151562691E-002;-1.830747467465699E-003;3.345098579302430E-003;
2.406666666666667E+009;1.955645978450775E-001;3.742874041199684E-002;-1.712164608761668E-003;3.230603644624353E-003;
2.406833333333334E+009;1.964042633771896E-001;3.755217418074608E-002;-1.618362613953650E-003;3.330028848722577E-003;
2.407000000000000E+009;1.968780755996704E-001;3.810404241085053E-002;-1.575657050125301E-003;3.251411486417055E-003;
2.407166666666667E+009;1.974201202392578E-001;3.818583115935326E-002;-1.533751375973225E-003;3.343810560181737E-003;
2.407333333333334E+009;1.975517570972443E-001;3.860025107860565E-002;-1.437599654309452E-003;3.323181765154004E-003;
2.407500000000000E+009;1.978102624416351E-001;3.898493200540543E-002;-1.538942800834775E-003;3.447177354246378E-003;
2.407666666666667E+009;1.978948265314102E-001;3.919479623436928E-002;-1.401870162226260E-003;3.399770241230726E-003;
2.407833333333334E+009;1.975688338279724E-001;3.947982192039490E-002;-1.402144553139806E-003;3.683040849864483E-003;
2.408000000000000E+009;1.975958794355393E-001;3.966165333986282E-002;-1.350871985778213E-003;3.562407102435827E-003;
2.408166666666667E+009;1.969795674085617E-001;3.974684327840805E-002;-1.179472194053233E-003;3.652063431218267E-003;
2.408333333333334E+009;1.967853456735611E-001;3.948728740215302E-002;-1.251901034265757E-003;3.814979922026396E-003;
2.408500000000000E+009;1.960985809564591E-001;3.965798020362854E-002;-1.145823858678341E-003;3.900997806340456E-003;
2.408666666666667E+009;1.954452693462372E-001;3.930404409766197E-002;-1.164307119324803E-003;4.111160058528185E-003;
2.408833333333334E+009;1.947556436061859E-001;3.902684897184372E-002;-1.016639755107462E-003;4.000457469373941E-003;
2.409000000000000E+009;1.937759220600128E-001;3.827818110585213E-002;-1.024723751470447E-003;4.227923229336739E-003;
2.409166666666667E+009;1.926349103450775E-001;3.777400776743889E-002;-8.016577921807766E-004;4.348916001617909E-003;
2.409333333333334E+009;1.917787790298462E-001;3.693019971251488E-002;-5.885120481252670E-004;4.331034142524004E-003;
2.409500000000000E+009;1.904154717922211E-001;3.604156151413918E-002;-3.366082673892379E-004;4.489572253078222E-003;
2.409666666666667E+009;1.892189085483551E-001;3.492743149399757E-002;-2.660326717887074E-004;4.496458917856216E-003;
2.409833333333334E+009;1.879912465810776E-001;3.370701894164085E-002;3.197030309820548E-005;4.447009880095720E-003;
2.410000000000000E+009;1.869283020496368E-001;3.219792246818543E-002;1.901354553410783E-004;4.664349369704723E-003;
2.410166666666667E+009;1.856528520584106E-001;3.066580370068550E-002;4.021966014988720E-004;4.625448025763035E-003;
2.410333333333334E+009;1.845671981573105E-001;2.904465608298779E-002;5.644562188535929E-004;4.646342713385820E-003;
2.410500000000000E+009;1.831791102886200E-001;2.738770283758640E-002;7.235198863781989E-004;4.696218296885490E-003;
2.410666666666667E+009;1.822420358657837E-001;2.504540048539639E-002;9.599410695955157E-004;4.672760609537363E-003;
2.410833333333334E+009;1.812478750944138E-001;2.318049408495426E-002;1.090567791834474E-003;4.567790776491165E-003;
2.411000000000000E+009;1.803553253412247E-001;2.087942324578762E-002;1.265506492927671E-003;4.648178815841675E-003;
2.411166666666667E+009;1.794492751359940E-001;1.881322264671326E-002;1.479793456383050E-003;4.579287953674793E-003;
2.411333333333334E+009;1.786588430404663E-001;1.612016186118126E-002;1.616155728697777E-003;4.537085071206093E-003;
2.411500000000000E+009;1.778835803270340E-001;1.381960324943066E-002;1.958007225766778E-003;4.430176690220833E-003;
2.411666666666667E+009;1.776741445064545E-001;1.133610401302576E-002;2.110363915562630E-003;4.477826878428459E-003;
2.411833333333334E+009;1.772088110446930E-001;9.042699821293354E-003;2.096483949571848E-003;4.337492864578962E-003;
2.412000000000000E+009;1.770944148302078E-001;6.125044543296099E-003;2.440026029944420E-003;4.346676636487246E-003;
2.412166666666667E+009;1.769336462020874E-001;3.791255643591285E-003;2.530229743570089E-003;4.171363543719053E-003;
2.412333333333334E+009;1.771152019500732E-001;1.105371629819274E-003;2.624950604513288E-003;4.085517022758722E-003;
2.412500000000000E+009;1.774162799119949E-001;-1.590690808370709E-003;3.167852526530623E-003;4.088672809302807E-003;
2.412666666666667E+009;1.776220649480820E-001;-4.259652923792601E-003;3.161555388942361E-003;3.835699055343866E-003;
2.412833333333334E+009;1.783198118209839E-001;-6.878830026835203E-003;3.474937286227942E-003;3.754137316718698E-003;
2.413000000000000E+009;1.791236847639084E-001;-9.399416856467724E-003;3.756131045520306E-003;3.628712147474289E-003;
2.413166666666667E+009;1.797314584255219E-001;-1.190075371414423E-002;3.870313754305244E-003;3.537531942129135E-003;
2.413333333333334E+009;1.806763112545013E-001;-1.446572039276362E-002;3.983542788773775E-003;3.179668448865414E-003;
2.413500000000000E+009;1.815951168537140E-001;-1.692831330001354E-002;4.373786970973015E-003;2.762278541922569E-003;
2.413666666666667E+009;1.828293800354004E-001;-1.932194083929062E-002;4.470214713364840E-003;2.652457449585199E-003;
2.413833333333334E+009;1.840798109769821E-001;-2.158023975789547E-002;4.613198339939117E-003;2.288701711222529E-003;
2.414000000000000E+009;1.851578503847122E-001;-2.390067279338837E-002;4.583551548421383E-003;1.900513540022075E-003;
2.414166666666667E+009;1.865850239992142E-001;-2.602645941078663E-002;4.590625409036875E-003;1.723793102428317E-003;
2.414333333333334E+009;1.879290938377380E-001;-2.807869389653206E-002;4.539221990853548E-003;1.421299180947244E-003;
2.414500000000000E+009;1.892309188842773E-001;-2.974242717027664E-002;4.379046149551868E-003;1.035538502037525E-003;
2.414666666666667E+009;1.906646490097046E-001;-3.151978552341461E-002;4.279129207134247E-003;9.836164535954595E-004;
2.414833333333334E+009;1.920516192913055E-001;-3.298835456371307E-002;4.214633256196976E-003;6.850336794741452E-004;
2.415000000000000E+009;1.933966130018234E-001;-3.452539443969727E-002;4.152291920036078E-003;5.480612162500620E-004;
2.415166666666667E+009;1.949231624603272E-001;-3.596038371324539E-002;4.024207592010498E-003;5.316206952556968E-004;
2.415333333333334E+009;1.962031722068787E-001;-3.691065311431885E-002;3.959234803915024E-003;1.697805710136890E-004;
2.415500000000000E+009;1.976285427808762E-001;-3.780261427164078E-002;3.958464134484530E-003;1.703572634141892E-004;
2.415666666666667E+009;1.989763379096985E-001;-3.890966996550560E-002;3.984615206718445E-003;-7.090839062584564E-005;
2.415833333333334E+009;2.001458853483200E-001;-3.944138810038567E-002;3.728870768100023E-003;-6.592863792320713E-005;
2.416000000000000E+009;2.011755555868149E-001;-4.020496457815170E-002;3.692308207973838E-003;-2.875725622288883E-004;
2.416166666666667E+009;2.023579031229019E-001;-4.082058370113373E-002;3.600927768275142E-003;-5.637755384668708E-004;
2.416333333333334E+009;2.032117545604706E-001;-4.116623848676682E-002;3.508077701553702E-003;-6.606506649404764E-004;
2.416500000000000E+009;2.040324807167053E-001;-4.142742976546288E-002;3.427375108003616E-003;-7.839894387871027E-004;
2.416666666666667E+009;2.046645134687424E-001;-4.186119884252548E-002;3.118092194199562E-003;-8.609952637925744E-004;
2.416833333333334E+009;2.050575613975525E-001;-4.182125255465508E-002;3.005564212799072E-003;-9.088951046578586E-004;
2.417000000000000E+009;2.054513096809387E-001;-4.187634587287903E-002;2.847904572263360E-003;-1.032952801324427E-003;
2.417166666666667E+009;2.055365145206451E-001;-4.175928235054016E-002;2.781974384561181E-003;-1.035238150507212E-003;
2.417333333333334E+009;2.055940628051758E-001;-4.141741991043091E-002;2.612929092720151E-003;-8.040028624236584E-004;
2.417500000000000E+009;2.055788189172745E-001;-4.137741401791573E-002;2.469093305990100E-003;-9.657122427597642E-004;
2.417666666666667E+009;2.053056359291077E-001;-4.089325666427612E-002;2.398006618022919E-003;-8.941452833823860E-004;
2.417833333333334E+009;2.050974071025848E-001;-4.071007668972015E-002;2.248533768579364E-003;-9.190265554934740E-004;
2.418000000000000E+009;2.046021819114685E-001;-4.014497995376587E-002;2.154449000954628E-003;-8.742617792449892E-004;
2.418166666666667E+009;2.039003670215607E-001;-3.989696502685547E-002;2.190650440752506E-003;-7.467926479876041E-004;
2.418333333333334E+009;2.031965255737305E-001;-3.965239599347115E-002;2.150923013687134E-003;-6.991475820541382E-004;
2.418500000000000E+009;2.023120075464249E-001;-3.948108106851578E-002;2.234005369246006E-003;-6.832284270785749E-004;
2.418666666666667E+009;2.015123963356018E-001;-3.915192559361458E-002;2.048249123618007E-003;-6.371430354192853E-004;
2.418833333333334E+009;2.002598643302918E-001;-3.920895978808403E-002;2.026319969445467E-003;-6.026810733601451E-004;
2.419000000000000E+009;1.991039067506790E-001;-3.913030773401260E-002;2.098075812682509E-003;-6.595663726329804E-004;
2.419166666666667E+009;1.976970881223679E-001;-3.928936645388603E-002;2.075289376080036E-003;-5.226330831646919E-004;
2.419333333333334E+009;1.963230073451996E-001;-3.952899202704430E-002;2.144127618521452E-003;-6.969847017899156E-004;
2.419500000000000E+009;1.948360353708267E-001;-3.980614617466927E-002;2.242974936962128E-003;-6.134549039416015E-004;
2.419666666666667E+009;1.931809782981873E-001;-4.049589112401009E-002;2.310551237314940E-003;-6.172436405904591E-004;
2.419833333333334E+009;1.914923489093781E-001;-4.094270244240761E-002;2.330817747861147E-003;-5.766951944679022E-004;
2.420000000000000E+009;1.898609697818756E-001;-4.164087027311325E-002;2.277541905641556E-003;-5.163577152416110E-004;
2.420166666666667E+009;1.881026178598404E-001;-4.241926968097687E-002;2.480265451595187E-003;-5.778810591436923E-004;
2.420333333333334E+009;1.862728297710419E-001;-4.343013092875481E-002;2.414342947304249E-003;-5.641808384098113E-004;
2.420500000000000E+009;1.843566447496414E-001;-4.469667375087738E-002;2.487854799255729E-003;-5.524795851670206E-004;
2.420666666666667E+009;1.825968772172928E-001;-4.575445502996445E-002;2.596319420263171E-003;-5.442632245831192E-004;
2.420833333333334E+009;1.807977259159088E-001;-4.701276868581772E-002;2.476874040439725E-003;-7.169868913479149E-004;
2.421000000000000E+009;1.791445016860962E-001;-4.858979210257530E-002;2.827744232490659E-003;-7.810585084371269E-004;
2.421166666666667E+009;1.774538457393646E-001;-5.037184059619904E-002;2.720714779570699E-003;-8.107582107186317E-004;
2.421333333333334E+009;1.756395846605301E-001;-5.189608037471771E-002;2.857783809304237E-003;-9.064641199074686E-004;
2.421500000000000E+009;1.739715188741684E-001;-5.378639325499535E-002;3.011527238413692E-003;-9.856326505541802E-004;
2.421666666666667E+009;1.724793761968613E-001;-5.577093735337257E-002;3.006261074915528E-003;-1.037180889397860E-003;
2.421833333333334E+009;1.711933910846710E-001;-5.768730863928795E-002;3.069221973419190E-003;-1.259815413504839E-003;
2.422000000000000E+009;1.697031855583191E-001;-5.959072709083557E-002;3.163265995681286E-003;-1.204331638291478E-003;
2.422166666666667E+009;1.686134338378906E-001;-6.185088679194450E-002;3.154671750962734E-003;-1.593618420884013E-003;
2.422333333333334E+009;1.674346774816513E-001;-6.408038735389710E-002;3.114988328889012E-003;-1.657602842897177E-003;
2.422500000000000E+009;1.665871143341065E-001;-6.616699695587158E-002;2.976607065647841E-003;-1.760795246809721E-003;
2.422666666666667E+009;1.657330393791199E-001;-6.852751970291138E-002;3.003443824127317E-003;-2.078196965157986E-003;
2.422833333333334E+009;1.651564985513687E-001;-7.065144926309586E-002;3.000829601660371E-003;-2.026010304689407E-003;
2.423000000000000E+009;1.645154356956482E-001;-7.288095355033875E-002;2.950836904346943E-003;-2.195442793890834E-003;
2.423166666666667E+009;1.639434993267059E-001;-7.515470683574677E-002;2.790496684610844E-003;-2.225021133199334E-003;
2.423333333333334E+009;1.637208461761475E-001;-7.727544009685516E-002;2.963770180940628E-003;-2.498841611668468E-003;
2.423500000000000E+009;1.633952707052231E-001;-7.937933504581451E-002;2.905882662162185E-003;-2.622621366754174E-003;
2.423666666666667E+009;1.634176820516586E-001;-8.169133961200714E-002;2.759085502475500E-003;-2.663882914930582E-003;
2.423833333333334E+009;1.632594019174576E-001;-8.373706042766571E-002;2.745942212641239E-003;-2.723052399232984E-003;
2.424000000000000E+009;1.635388880968094E-001;-8.580551296472549E-002;2.650672104209662E-003;-2.985036931931973E-003;
2.424166666666667E+009;1.635535955429077E-001;-8.760405331850052E-002;2.516624052077532E-003;-3.297786228358746E-003;
2.424333333333334E+009;1.638841032981873E-001;-8.938969671726227E-002;2.562668174505234E-003;-3.381978487595916E-003;
2.424500000000000E+009;1.642611026763916E-001;-9.142682701349258E-002;2.182394033297896E-003;-3.672742983326316E-003;
2.424666666666667E+009;1.646323949098587E-001;-9.299090504646301E-002;2.031780779361725E-003;-3.728331066668034E-003;
2.424833333333334E+009;1.652697622776032E-001;-9.450599551200867E-002;1.873326720669866E-003;-3.905836725607514E-003;
2.425000000000000E+009;1.657543182373047E-001;-9.590570628643036E-002;1.713601523078978E-003;-4.090316127985716E-003;
2.425166666666667E+009;1.662143468856812E-001;-9.729083627462387E-002;1.597659080289304E-003;-4.127429798245430E-003;
2.425333333333334E+009;1.665799915790558E-001;-9.841467440128326E-002;1.320582814514637E-003;-4.228165373206139E-003;
2.425500000000000E+009;1.673675924539566E-001;-9.969413280487061E-002;1.189773785881698E-003;-4.326798487454653E-003;
2.425666666666667E+009;1.679026931524277E-001;-1.004141047596932E-001;8.393850293941796E-004;-4.295293707400560E-003;
2.425833333333334E+009;1.683562397956848E-001;-1.014676764607430E-001;6.708478904329240E-004;-4.408695269376040E-003;
2.426000000000000E+009;1.690115779638290E-001;-1.019171103835106E-001;4.570495511870831E-004;-4.147116094827652E-003;
2.426166666666667E+009;1.697264462709427E-001;-1.026569455862045E-001;1.397583255311474E-004;-4.195382818579674E-003;
2.426333333333334E+009;1.699057519435883E-001;-1.032595634460449E-001;6.272905739024282E-005;-4.301761742681265E-003;
2.426500000000000E+009;1.705539673566818E-001;-1.036196127533913E-001;-1.391909318044782E-004;-4.104552324861288E-003;
2.426666666666667E+009;1.710796803236008E-001;-1.039738878607750E-001;-2.255286090075970E-004;-4.152937326580286E-003;
2.426833333333334E+009;1.715434789657593E-001;-1.041910201311112E-001;-4.371661925688386E-004;-4.066402092576027E-003;
2.427000000000000E+009;1.717261672019959E-001;-1.043876558542252E-001;-7.425057119689882E-004;-4.009200260043144E-003;
2.427166666666667E+009;1.720330417156220E-001;-1.045742705464363E-001;-8.618275751359761E-004;-3.947826568037272E-003;
2.427333333333334E+009;1.721745133399963E-001;-1.047109887003899E-001;-8.883740520104766E-004;-3.869906533509493E-003;
2.427500000000000E+009;1.721156686544418E-001;-1.048519685864449E-001;-1.028387458063662E-003;-3.823592793196440E-003;
2.427666666666667E+009;1.721269190311432E-001;-1.046780794858933E-001;-1.315449131652713E-003;-3.691403660923243E-003;
2.427833333333334E+009;1.718261241912842E-001;-1.047737076878548E-001;-1.344936899840832E-003;-3.684423165395856E-003;
