# Version 1.00
#
freq[Hz];re:Trc1_S11;im:Trc1_S11;re:Trc2_S21;im:Trc2_S21;
2.400000000000000E+009;1.497222185134888E-001;1.135860309004784E-001;7.016629911959171E-003;7.211011834442616E-004;
2.400166666666667E+009;1.495741158723831E-001;1.114279031753540E-001;7.236108649522066E-003;1.560034725116566E-004;
2.400333333333334E+009;1.496642827987671E-001;1.092208623886108E-001;7.428014650940895E-003;-2.394991170149297E-004;
2.400500000000000E+009;1.497473716735840E-001;1.066477075219154E-001;7.323101628571749E-003;-9.649401763454080E-004;
2.400666666666667E+009;1.498727947473526E-001;1.042586639523506E-001;7.315543014556170E-003;-1.358011504635215E-003;
2.400833333333334E+009;1.499716192483902E-001;1.014051958918572E-001;7.219983730465174E-003;-1.850145519711077E-003;
2.401000000000000E+009;1.504524052143097E-001;9.860366582870483E-002;6.798246409744024E-003;-2.429897431284189E-003;
2.401166666666667E+009;1.506061702966690E-001;9.604515135288239E-002;6.635863799601793E-003;-2.941896440461278E-003;
2.401333333333334E+009;1.513162851333618E-001;9.322506189346314E-002;6.229105405509472E-003;-3.270319430157542E-003;
2.401500000000000E+009;1.516503095626831E-001;9.026221185922623E-002;5.919259507209063E-003;-3.654312575235963E-003;
2.401666666666667E+009;1.522172391414642E-001;8.761356770992279E-002;5.416478496044874E-003;-3.825230989605188E-003;
2.401833333333334E+009;1.529467403888702E-001;8.495747298002243E-002;4.947527777403593E-003;-4.159011412411928E-003;
2.402000000000000E+009;1.539815217256546E-001;8.221676200628281E-002;4.595841746777296E-003;-4.290707875043154E-003;
2.402166666666667E+009;1.549403965473175E-001;7.961578667163849E-002;4.165704362094402E-003;-4.389996174722910E-003;
2.402333333333334E+009;1.561285704374313E-001;7.698520272970200E-002;3.907740116119385E-003;-4.433359019458294E-003;
2.402500000000000E+009;1.574285328388214E-001;7.446607202291489E-002;3.601219039410353E-003;-4.398224875330925E-003;
2.402666666666667E+009;1.586678773164749E-001;7.209089398384094E-002;3.228264860808849E-003;-4.461390431970358E-003;
2.402833333333334E+009;1.602950692176819E-001;6.960421800613403E-002;3.027780214324594E-003;-4.496337845921516E-003;
2.403000000000000E+009;1.619910299777985E-001;6.742276996374130E-002;2.732143038883805E-003;-4.413301590830088E-003;
2.403166666666667E+009;1.639086008071899E-001;6.513863056898117E-002;2.409807872027159E-003;-4.371904302388430E-003;
2.403333333333334E+009;1.655584722757340E-001;6.298054009675980E-002;2.119550947099924E-003;-4.349548835307360E-003;
2.403500000000000E+009;1.675218641757965E-001;6.087504327297211E-002;1.847699400968850E-003;-4.248959477990866E-003;
2.403666666666667E+009;1.693524867296219E-001;5.886295065283775E-002;1.902960357256234E-003;-4.101848695427179E-003;
2.403833333333334E+009;1.713615357875824E-001;5.683774501085281E-002;1.636452041566372E-003;-4.155346658080816E-003;
2.404000000000000E+009;1.731458306312561E-001;5.521613359451294E-002;1.526265754364431E-003;-4.033253528177738E-003;
2.404166666666667E+009;1.751738488674164E-001;5.352249369025230E-002;1.192990457639098E-003;-4.074562340974808E-003;
2.404333333333334E+009;1.770367175340653E-001;5.209960415959358E-002;1.233897870406508E-003;-3.970874939113855E-003;
2.404500000000000E+009;1.789005398750305E-001;5.061948671936989E-002;1.284944242797792E-003;-3.751753596588969E-003;
2.404666666666667E+009;1.805908232927322E-001;4.941186308860779E-002;8.306482923217118E-004;-3.738947445526719E-003;
2.404833333333334E+009;1.825261414051056E-001;4.814579710364342E-002;9.001115104183555E-004;-3.684689756482840E-003;
2.405000000000000E+009;1.840375512838364E-001;4.753973707556725E-002;5.784720415249467E-004;-3.593986621126533E-003;
2.405166666666667E+009;1.856790333986282E-001;4.662670567631722E-002;5.691968253813684E-004;-3.580329474061728E-003;
2.405333333333334E+009;1.872853487730026E-001;4.623586684465408E-002;3.527094668243080E-004;-3.511589020490646E-003;
2.405500000000000E+009;1.888799071311951E-001;4.563833773136139E-002;9.935667185345665E-005;-3.397040767595172E-003;
2.405666666666667E+009;1.901207566261292E-001;4.520181193947792E-002;2.502447750885040E-004;-3.565147751942277E-003;
2.405833333333334E+009;1.916406303644180E-001;4.488002881407738E-002;-1.740925341664479E-007;-3.507400164380670E-003;
2.406000000000000E+009;1.927747279405594E-001;4.449893906712532E-002;4.338809958426282E-005;-3.392489394173026E-003;
2.406166666666667E+009;1.939365267753601E-001;4.435318708419800E-002;-8.588324999436736E-005;-3.139228094369173E-003;
2.406333333333334E+009;1.949591338634491E-001;4.436341673135757E-002;-1.658387918723747E-004;-3.137311898171902E-003;
2.406500000000000E+009;1.958081126213074E-001;4.441558942198753E-002;-3.070860693696886E-004;-2.997868927195668E-003;
2.406666666666667E+009;1.965220272541046E-001;4.427944123744965E-002;-3.653304011095315E-004;-2.863232744857669E-003;
2.406833333333334E+009;1.970701515674591E-001;4.425612464547157E-002;-2.291725395480171E-004;-2.661096863448620E-003;
2.407000000000000E+009;1.974807083606720E-001;4.447523504495621E-002;-3.930492384824902E-004;-2.639201935380697E-003;
2.407166666666667E+009;1.979533433914185E-001;4.418500885367394E-002;-2.036258083535358E-004;-2.484282944351435E-003;
2.407333333333334E+009;1.980156302452087E-001;4.433654621243477E-002;-1.818593300413340E-004;-2.275021513924003E-003;
2.407500000000000E+009;1.980003267526627E-001;4.435591399669647E-002;3.620365896495059E-005;-2.395735587924719E-003;
2.407666666666667E+009;1.979058384895325E-001;4.420671984553337E-002;5.887295264983550E-005;-2.237948589026928E-003;
2.407833333333334E+009;1.974272876977921E-001;4.397172108292580E-002;9.027803025674075E-005;-2.323123160749674E-003;
2.408000000000000E+009;1.973777264356613E-001;4.385722056031227E-002;1.354666019324213E-004;-2.284348709508777E-003;
2.408166666666667E+009;1.967306882143021E-001;4.348202422261238E-002;7.777147402521223E-005;-2.397628035396338E-003;
2.408333333333334E+009;1.962404549121857E-001;4.288629442453384E-002;6.163193029351533E-005;-2.345392946153879E-003;
2.408500000000000E+009;1.955965012311935E-001;4.256061837077141E-002;1.187934540212154E-004;-2.410706598311663E-003;
2.408666666666667E+009;1.948830485343933E-001;4.194889590144157E-002;1.847358944360167E-004;-2.456807065755129E-003;
2.408833333333334E+009;1.939805299043655E-001;4.139861837029457E-002;7.513177115470171E-005;-2.494375919923186E-003;
2.409000000000000E+009;1.930122822523117E-001;4.035339131951332E-002;2.157211129087955E-004;-2.511857077479363E-003;
2.409166666666667E+009;1.920466125011444E-001;3.931150585412979E-002;1.241257414221764E-004;-2.540143672376871E-003;
2.409333333333334E+009;1.909126490354538E-001;3.831069916486740E-002;1.993192017835099E-005;-2.692357171326876E-003;
2.409500000000000E+009;1.897479891777039E-001;3.710692375898361E-002;2.661347098182887E-004;-2.677099779248238E-003;
2.409666666666667E+009;1.886817067861557E-001;3.574327379465103E-002;2.268019015900791E-004;-2.731457585468888E-003;
2.409833333333334E+009;1.875320971012116E-001;3.428094089031220E-002;2.026261608989444E-005;-2.861828077584505E-003;
2.410000000000000E+009;1.866094172000885E-001;3.255088999867439E-002;8.808524580672383E-005;-3.105892566964030E-003;
2.410166666666667E+009;1.854747384786606E-001;3.081090003252029E-002;1.744684959703591E-005;-3.205275395885110E-003;
2.410333333333334E+009;1.844353973865509E-001;2.900592423975468E-002;-6.436608236981556E-005;-3.245108295232058E-003;
2.410500000000000E+009;1.834173053503037E-001;2.716113068163395E-002;-2.208503574365750E-004;-3.290379419922829E-003;
2.410666666666667E+009;1.823831349611282E-001;2.488928101956844E-002;-3.595076268538833E-004;-3.398045664653182E-003;
2.410833333333334E+009;1.817800402641296E-001;2.266612835228443E-002;-5.291638080962002E-004;-3.364949952811003E-003;
2.411000000000000E+009;1.809946447610855E-001;2.052232809364796E-002;-6.067935028113425E-004;-3.497692523524165E-003;
2.411166666666667E+009;1.803492158651352E-001;1.830802112817764E-002;-5.641472525894642E-004;-3.501258324831724E-003;
2.411333333333334E+009;1.797397285699844E-001;1.571591012179852E-002;-8.391310111619532E-004;-3.579177195206285E-003;
2.411500000000000E+009;1.793536245822907E-001;1.335180550813675E-002;-8.999851415865123E-004;-3.566941944882274E-003;
2.411666666666667E+009;1.791135817766190E-001;1.081232912838459E-002;-1.105844974517822E-003;-3.712867153808475E-003;
2.411833333333334E+009;1.787904351949692E-001;8.477431721985340E-003;-1.338748144917190E-003;-3.534262999892235E-003;
2.412000000000000E+009;1.788962036371231E-001;5.859136581420898E-003;-1.413068734109402E-003;-3.737590042874217E-003;
2.412166666666667E+009;1.791045814752579E-001;3.474970348179340E-003;-1.566939637996256E-003;-3.584042657166719E-003;
2.412333333333334E+009;1.792051047086716E-001;7.715084939263761E-004;-1.794902258552611E-003;-3.538765246048570E-003;
2.412500000000000E+009;1.797954291105270E-001;-1.486265333369374E-003;-1.927821547724307E-003;-3.666253061965108E-003;
2.412666666666667E+009;1.800610274076462E-001;-4.102685023099184E-003;-2.129442524164915E-003;-3.290982451289892E-003;
2.412833333333334E+009;1.808751523494721E-001;-6.608573254197836E-003;-2.359351841732860E-003;-3.272584639489651E-003;
2.413000000000000E+009;1.814927309751511E-001;-8.862917311489582E-003;-2.679791068658233E-003;-3.259143559262157E-003;
2.413166666666667E+009;1.824960559606552E-001;-1.108163781464100E-002;-2.603298751637340E-003;-3.069163300096989E-003;
2.413333333333334E+009;1.834272295236588E-001;-1.358401682227850E-002;-2.803592942655087E-003;-3.022470744326711E-003;
2.413500000000000E+009;1.843199878931046E-001;-1.569823734462261E-002;-2.789565362036228E-003;-2.974461531266570E-003;
2.413666666666667E+009;1.855387389659882E-001;-1.818887516856194E-002;-2.973851049318910E-003;-2.805721014738083E-003;
2.413833333333334E+009;1.866630017757416E-001;-2.006690204143524E-002;-3.007523715496063E-003;-2.519444562494755E-003;
2.414000000000000E+009;1.876072585582733E-001;-2.204541862010956E-002;-3.069228259846568E-003;-2.617262070998550E-003;
2.414166666666667E+009;1.892151534557343E-001;-2.401381172239780E-002;-3.151386743411422E-003;-2.426490420475602E-003;
2.414333333333334E+009;1.901914328336716E-001;-2.589528448879719E-002;-3.118279622867703E-003;-2.400131197646260E-003;
2.414500000000000E+009;1.915155053138733E-001;-2.732424251735210E-002;-3.273952519521117E-003;-2.224369673058391E-003;
2.414666666666667E+009;1.928160935640335E-001;-2.894034795463085E-002;-3.261835779994726E-003;-2.224271418526769E-003;
2.414833333333334E+009;1.938224136829376E-001;-3.044050373136997E-002;-3.376146312803030E-003;-2.237217267975211E-003;
2.415000000000000E+009;1.951373368501663E-001;-3.172347694635391E-002;-3.538042306900024E-003;-2.127597108483315E-003;
2.415166666666667E+009;1.963883042335510E-001;-3.274945169687271E-002;-3.564507234841585E-003;-1.970369135960937E-003;
2.415333333333334E+009;1.975355744361877E-001;-3.359017521142960E-002;-3.801606362685561E-003;-2.131434157490730E-003;
2.415500000000000E+009;1.987400501966476E-001;-3.433177247643471E-002;-3.997733816504479E-003;-1.725244335830212E-003;
2.415666666666667E+009;1.997708231210709E-001;-3.527893498539925E-002;-4.100285004824400E-003;-1.673107035458088E-003;
2.415833333333334E+009;2.007515132427216E-001;-3.593039885163307E-002;-4.105915315449238E-003;-1.597372931428254E-003;
2.416000000000000E+009;2.014723122119904E-001;-3.646807745099068E-002;-4.333200864493847E-003;-1.235400675795972E-003;
2.416166666666667E+009;2.022536695003510E-001;-3.704478219151497E-002;-4.310602322220802E-003;-1.012684311717749E-003;
2.416333333333334E+009;2.028293162584305E-001;-3.729710355401039E-002;-4.515290260314941E-003;-7.896620081737638E-004;
2.416500000000000E+009;2.034396976232529E-001;-3.748745471239090E-002;-4.517894703894854E-003;-5.535068921744824E-004;
2.416666666666667E+009;2.038372159004211E-001;-3.771388903260231E-002;-4.478990100324154E-003;-2.223828341811895E-004;
2.416833333333334E+009;2.038124203681946E-001;-3.761642053723335E-002;-4.347816575318575E-003;-1.136092396336608E-004;
2.417000000000000E+009;2.040975540876389E-001;-3.773509711027145E-002;-4.179774783551693E-003;1.383875205647200E-004;
2.417166666666667E+009;2.038935720920563E-001;-3.747939690947533E-002;-4.142387304455042E-003;1.864808582467958E-004;
2.417333333333334E+009;2.037860453128815E-001;-3.731734305620194E-002;-4.096473567187786E-003;5.655475542880595E-004;
2.417500000000000E+009;2.035329490900040E-001;-3.732183575630188E-002;-4.021947272121906E-003;4.264931194484234E-004;
2.417666666666667E+009;2.031036615371704E-001;-3.705506771802902E-002;-3.846221370622516E-003;6.692314054816961E-004;
2.417833333333334E+009;2.026790082454681E-001;-3.673090413212776E-002;-3.768751397728920E-003;5.336780450306833E-004;
2.418000000000000E+009;2.019705176353455E-001;-3.647568449378014E-002;-3.648695535957813E-003;7.581626996397972E-004;
2.418166666666667E+009;2.013187855482101E-001;-3.637387976050377E-002;-3.791585331782699E-003;7.549157016910613E-004;
2.418333333333334E+009;2.004077583551407E-001;-3.606611862778664E-002;-3.813268616795540E-003;8.914374047890306E-004;
2.418500000000000E+009;1.994236111640930E-001;-3.606488183140755E-002;-3.757597645744681E-003;8.250530809164047E-004;
2.418666666666667E+009;1.985109597444534E-001;-3.601153194904327E-002;-3.904462093487382E-003;1.065625576302409E-003;
2.418833333333334E+009;1.974074542522430E-001;-3.607434779405594E-002;-3.892061766237021E-003;1.134817022830248E-003;
2.419000000000000E+009;1.961360871791840E-001;-3.620256856083870E-002;-3.907848149538040E-003;1.280340249650180E-003;
2.419166666666667E+009;1.950131654739380E-001;-3.654292598366737E-002;-3.812418319284916E-003;1.447832793928683E-003;
2.419333333333334E+009;1.935119777917862E-001;-3.702551871538162E-002;-3.845388768240809E-003;1.578321447595954E-003;
2.419500000000000E+009;1.921387165784836E-001;-3.741605207324028E-002;-4.015265032649040E-003;1.704124268144369E-003;
2.419666666666667E+009;1.905720233917236E-001;-3.820246830582619E-002;-3.978716209530830E-003;1.840658835135400E-003;
2.419833333333334E+009;1.890266686677933E-001;-3.884210437536240E-002;-4.058421589434147E-003;2.056526951491833E-003;
2.420000000000000E+009;1.874903291463852E-001;-3.987437486648560E-002;-3.799949539825320E-003;2.311611082404852E-003;
2.420166666666667E+009;1.859863698482513E-001;-4.073971509933472E-002;-3.821721766144037E-003;2.443540375679731E-003;
2.420333333333334E+009;1.842558532953262E-001;-4.193472862243652E-002;-3.581446362659335E-003;2.789072925224900E-003;
2.420500000000000E+009;1.826026290655136E-001;-4.326575994491577E-002;-3.459449158981443E-003;2.966814441606402E-003;
2.420666666666667E+009;1.809853911399841E-001;-4.459612071514130E-002;-3.374794032424688E-003;3.113941289484501E-003;
2.420833333333334E+009;1.792541891336441E-001;-4.597354680299759E-002;-2.999325050041080E-003;3.406213596463203E-003;
2.421000000000000E+009;1.777429878711700E-001;-4.769691452383995E-002;-2.647764747962356E-003;3.361464245244861E-003;
2.421166666666667E+009;1.764396876096726E-001;-4.934042692184448E-002;-2.492681611329317E-003;3.510319394990802E-003;
2.421333333333334E+009;1.747030019760132E-001;-5.103541538119316E-002;-2.211297163739801E-003;3.492945805191994E-003;
2.421500000000000E+009;1.733795255422592E-001;-5.288967490196228E-002;-2.072513336315751E-003;3.404707415029407E-003;
2.421666666666667E+009;1.720028966665268E-001;-5.468233302235603E-002;-1.854861271567643E-003;3.535072784870863E-003;
2.421833333333334E+009;1.708812862634659E-001;-5.642967671155930E-002;-1.577638438902795E-003;3.470870666205883E-003;
2.422000000000000E+009;1.697968691587448E-001;-5.855136737227440E-002;-1.277832663618028E-003;3.350394777953625E-003;
2.422166666666667E+009;1.687750816345215E-001;-6.047634407877922E-002;-1.251261564902961E-003;3.250397508963943E-003;
2.422333333333334E+009;1.679672449827194E-001;-6.250173598527908E-002;-1.144393230788410E-003;3.067323938012123E-003;
2.422500000000000E+009;1.671020090579987E-001;-6.458735466003418E-002;-1.021412666887045E-003;3.080705180764198E-003;
2.422666666666667E+009;1.663553565740585E-001;-6.657440215349197E-002;-9.987963130697608E-004;2.965606749057770E-003;
2.422833333333334E+009;1.660212278366089E-001;-6.865739822387695E-002;-8.708382956683636E-004;2.814350649714470E-003;
2.423000000000000E+009;1.655385494232178E-001;-7.060973346233368E-002;-8.530364139005542E-004;2.779042581096292E-003;
2.423166666666667E+009;1.651797741651535E-001;-7.266319543123245E-002;-8.609170326963067E-004;2.817583968862891E-003;
2.423333333333334E+009;1.650030612945557E-001;-7.474295794963837E-002;-8.329182746820152E-004;2.654704265296459E-003;
2.423500000000000E+009;1.648891866207123E-001;-7.639411091804504E-002;-9.037082782015204E-004;2.655361313372850E-003;
2.423666666666667E+009;1.650111973285675E-001;-7.835267484188080E-002;-1.043939613737166E-003;2.541656373068690E-003;
2.423833333333334E+009;1.649554073810577E-001;-8.016814291477203E-002;-8.598722633905709E-004;2.515546511858702E-003;
2.424000000000000E+009;1.652605235576630E-001;-8.204643428325653E-002;-9.209520067088306E-004;2.603928325697780E-003;
2.424166666666667E+009;1.652889847755432E-001;-8.376091718673706E-002;-1.091120182536542E-003;2.581838984042406E-003;
2.424333333333334E+009;1.657838970422745E-001;-8.523721992969513E-002;-9.266269626095891E-004;2.694747410714626E-003;
2.424500000000000E+009;1.662119776010513E-001;-8.700709789991379E-002;-9.541606996208429E-004;2.562659094110131E-003;
2.424666666666667E+009;1.665264964103699E-001;-8.823151141405106E-002;-8.970561902970076E-004;2.715458627790213E-003;
2.424833333333334E+009;1.672455072402954E-001;-8.949711918830872E-002;-9.557357407175005E-004;2.699405886232853E-003;
2.425000000000000E+009;1.676375418901444E-001;-9.072203934192658E-002;-8.434406481683254E-004;2.899669809266925E-003;
2.425166666666667E+009;1.680167317390442E-001;-9.185923635959625E-002;-1.004790072329342E-003;2.885745838284493E-003;
2.425333333333334E+009;1.685464084148407E-001;-9.279452264308929E-002;-6.841590511612594E-004;2.941371640190482E-003;
2.425500000000000E+009;1.690998822450638E-001;-9.379253536462784E-002;-7.779350271448493E-004;3.024225821718574E-003;
2.425666666666667E+009;1.696511059999466E-001;-9.447067975997925E-002;-6.862037116661668E-004;3.157030325382948E-003;
2.425833333333334E+009;1.701404750347138E-001;-9.536409378051758E-002;-6.478863651864231E-004;3.171708201989532E-003;
2.426000000000000E+009;1.706829667091370E-001;-9.575909376144409E-002;-5.754514131695032E-004;3.284562379121780E-003;
2.426166666666667E+009;1.712170541286469E-001;-9.631944447755814E-002;-3.635645844042301E-004;3.059569280594587E-003;
2.426333333333334E+009;1.714906245470047E-001;-9.677549451589584E-002;-2.094519149977714E-004;3.312323009595275E-003;
2.426500000000000E+009;1.720669865608215E-001;-9.707651287317276E-002;-1.854168949648738E-004;3.328261896967888E-003;
2.426666666666667E+009;1.724745184183121E-001;-9.748747944831848E-002;-2.549601485952735E-004;3.390135942026973E-003;
2.426833333333334E+009;1.728840470314026E-001;-9.774320572614670E-002;-7.183825073298067E-005;3.405380761250854E-003;
2.427000000000000E+009;1.729993522167206E-001;-9.808667749166489E-002;2.067020977847278E-005;3.423170652240515E-003;
2.427166666666667E+009;1.732392460107803E-001;-9.818766266107559E-002;2.383946703048423E-004;3.653490217402577E-003;
2.427333333333334E+009;1.731943041086197E-001;-9.843510389328003E-002;1.488913258071989E-004;3.442901186645031E-003;
2.427500000000000E+009;1.731357723474503E-001;-9.871295839548111E-002;2.079103578580543E-004;3.523105755448341E-003;
2.427666666666667E+009;1.728817522525787E-001;-9.881360828876495E-002;4.967721179127693E-004;3.668762976303697E-003;
