# Version 1.00
#
freq[Hz];re:Trc1_S11;im:Trc1_S11;re:Trc2_S21;im:Trc2_S21;
2.400000000000000E+009;1.497870981693268E-001;1.136735826730728E-001;7.082313764840365E-003;6.757800001651049E-004;
2.400166666666667E+009;1.495514065027237E-001;1.115487888455391E-001;7.354814093559980E-003;1.139757878263481E-004;
2.400333333333334E+009;1.497904658317566E-001;1.091181710362434E-001;7.210046518594027E-003;-4.413299320731312E-004;
2.400500000000000E+009;1.497376263141632E-001;1.066185832023621E-001;7.250859402120113E-003;-9.376094094477594E-004;
2.400666666666667E+009;1.498727500438690E-001;1.042682155966759E-001;7.209551520645618E-003;-1.413489924743772E-003;
2.400833333333334E+009;1.501186788082123E-001;1.014163494110107E-001;7.135681342333555E-003;-1.985549926757813E-003;
2.401000000000000E+009;1.505312323570252E-001;9.882985055446625E-002;6.817854940891266E-003;-2.509694779291749E-003;
2.401166666666667E+009;1.505291610956192E-001;9.602797031402588E-002;6.562919355928898E-003;-3.034259192645550E-003;
2.401333333333334E+009;1.511854082345963E-001;9.318563342094421E-002;6.237652618438005E-003;-3.272606991231442E-003;
2.401500000000000E+009;1.516274809837341E-001;9.044178575277329E-002;5.851435940712690E-003;-3.695352235808969E-003;
2.401666666666667E+009;1.523021608591080E-001;8.771709352731705E-002;5.467816721647978E-003;-3.987395670264959E-003;
2.401833333333334E+009;1.528286337852478E-001;8.484596014022827E-002;5.077243782579899E-003;-4.084115847945213E-003;
2.402000000000000E+009;1.539459526538849E-001;8.211885392665863E-002;4.613728728145361E-003;-4.419837612658739E-003;
2.402166666666667E+009;1.549649089574814E-001;7.962684333324432E-002;4.291687160730362E-003;-4.480355884879828E-003;
2.402333333333334E+009;1.561577916145325E-001;7.695209980010986E-002;3.864467144012451E-003;-4.474208690226078E-003;
2.402500000000000E+009;1.574131846427918E-001;7.440008968114853E-002;3.367850091308355E-003;-4.611577838659287E-003;
2.402666666666667E+009;1.586879044771195E-001;7.220542430877686E-002;3.138225758448243E-003;-4.464833065867424E-003;
2.402833333333334E+009;1.604662239551544E-001;6.958549469709396E-002;2.817922038957477E-003;-4.572454839944840E-003;
2.403000000000000E+009;1.618465334177017E-001;6.738480180501938E-002;2.594841644167900E-003;-4.525140393525362E-003;
2.403166666666667E+009;1.638564020395279E-001;6.527798622846603E-002;2.334238728508353E-003;-4.379472229629755E-003;
2.403333333333334E+009;1.655656993389130E-001;6.305899471044540E-002;2.100681420415640E-003;-4.356634803116322E-003;
2.403500000000000E+009;1.673057079315186E-001;6.102385371923447E-002;1.906183315441012E-003;-4.177755676209927E-003;
2.403666666666667E+009;1.694310605525971E-001;5.900046974420548E-002;1.894621993415058E-003;-4.141072742640972E-003;
2.403833333333334E+009;1.714429408311844E-001;5.703606456518173E-002;1.484970562160015E-003;-4.026592709124088E-003;
2.404000000000000E+009;1.731752902269363E-001;5.538068711757660E-002;1.452583586797118E-003;-4.061997402459383E-003;
2.404166666666667E+009;1.750652343034744E-001;5.369171500205994E-002;1.446323352865875E-003;-3.943586722016335E-003;
2.404333333333334E+009;1.770828068256378E-001;5.208199098706245E-002;1.180769992060959E-003;-3.901811549440026E-003;
2.404500000000000E+009;1.789132356643677E-001;5.040631815791130E-002;1.104955910705030E-003;-3.862872254103422E-003;
2.404666666666667E+009;1.806599944829941E-001;4.949000477790833E-002;9.843371808528900E-004;-3.749784315004945E-003;
2.404833333333334E+009;1.826326847076416E-001;4.820126667618752E-002;7.756972918286920E-004;-3.873094217851758E-003;
2.405000000000000E+009;1.840072125196457E-001;4.747644811868668E-002;6.740703247487545E-004;-3.900232957676053E-003;
2.405166666666667E+009;1.858616173267365E-001;4.674288630485535E-002;6.145557854324579E-004;-3.638982074335218E-003;
2.405333333333334E+009;1.871566027402878E-001;4.611373692750931E-002;4.097696219105274E-004;-3.668150631710887E-003;
2.405500000000000E+009;1.888407170772553E-001;4.567471891641617E-002;4.278280248399824E-004;-3.539314027875662E-003;
2.405666666666667E+009;1.903204619884491E-001;4.522224515676498E-002;3.392169310245663E-005;-3.524444065988064E-003;
2.405833333333334E+009;1.916490942239761E-001;4.498499631881714E-002;-5.488299848366296E-006;-3.549346933141351E-003;
2.406000000000000E+009;1.928080469369888E-001;4.466437548398972E-002;-7.172672485467047E-005;-3.183442866429687E-003;
2.406166666666667E+009;1.938691139221191E-001;4.439236968755722E-002;-1.872782013379037E-004;-3.199928440153599E-003;
2.406333333333334E+009;1.950225234031677E-001;4.444287717342377E-002;-1.286168844671920E-004;-2.997098723426461E-003;
2.406500000000000E+009;1.958541274070740E-001;4.432870075106621E-002;-1.690059434622526E-004;-2.986661158502102E-003;
2.406666666666667E+009;1.966309845447540E-001;4.430283233523369E-002;-3.255118208471686E-004;-2.800886752083898E-003;
2.406833333333334E+009;1.971564739942551E-001;4.423454031348229E-002;-2.768989361356944E-004;-2.704149577766657E-003;
2.407000000000000E+009;1.975597292184830E-001;4.433116689324379E-002;-3.252085298299789E-004;-2.594730816781521E-003;
2.407166666666667E+009;1.980098783969879E-001;4.419539123773575E-002;-1.336889545200393E-004;-2.567099640145898E-003;
2.407333333333334E+009;1.980324983596802E-001;4.422917217016220E-002;-2.175411646021530E-004;-2.479200949892402E-003;
2.407500000000000E+009;1.979915201663971E-001;4.427676647901535E-002;-1.119675289373845E-004;-2.333800541236997E-003;
2.407666666666667E+009;1.979263871908188E-001;4.415635019540787E-002;-1.349130761809647E-004;-2.160437637940049E-003;
2.407833333333334E+009;1.975932121276856E-001;4.405678808689117E-002;-7.529571303166449E-005;-2.419999567791820E-003;
2.408000000000000E+009;1.974446624517441E-001;4.390128329396248E-002;1.602577249286696E-004;-2.350367838516831E-003;
2.408166666666667E+009;1.968472301959992E-001;4.354356974363327E-002;1.880336058093235E-004;-2.400447847321630E-003;
2.408333333333334E+009;1.964121460914612E-001;4.310608282685280E-002;8.223728946177289E-005;-2.361174207180738E-003;
2.408500000000000E+009;1.955746263265610E-001;4.256379604339600E-002;8.500825788360089E-005;-2.442150376737118E-003;
2.408666666666667E+009;1.949649006128311E-001;4.202483966946602E-002;2.358832862228155E-004;-2.345849527046084E-003;
2.408833333333334E+009;1.940030604600906E-001;4.135821759700775E-002;3.107130760326982E-004;-2.503208350390196E-003;
2.409000000000000E+009;1.932075172662735E-001;4.021303728222847E-002;7.060795905999839E-005;-2.450856845825911E-003;
2.409166666666667E+009;1.919598728418350E-001;3.928773477673531E-002;1.862456410890445E-004;-2.548967255279422E-003;
2.409333333333334E+009;1.910515874624252E-001;3.838852420449257E-002;1.934801985044032E-004;-2.625257242470980E-003;
2.409500000000000E+009;1.898385733366013E-001;3.713526576757431E-002;1.159682869911194E-004;-2.766313031315804E-003;
2.409666666666667E+009;1.888161301612854E-001;3.577265143394470E-002;5.677146327798255E-005;-2.822308568283916E-003;
2.409833333333334E+009;1.877057701349258E-001;3.419554606080055E-002;9.331336332252249E-005;-2.935392782092094E-003;
2.410000000000000E+009;1.866220682859421E-001;3.257917612791061E-002;1.668960467213765E-004;-3.075962187722325E-003;
2.410166666666667E+009;1.856456696987152E-001;3.069686517119408E-002;-3.454791658441536E-005;-3.244944848120213E-003;
2.410333333333334E+009;1.845321655273438E-001;2.892082557082176E-002;-1.322175376117230E-004;-3.078558016568422E-003;
2.410500000000000E+009;1.835007220506668E-001;2.720507979393005E-002;-1.326139026787132E-004;-3.300977870821953E-003;
2.410666666666667E+009;1.824686080217362E-001;2.494767121970654E-002;-4.554092884063721E-004;-3.447288647294045E-003;
2.410833333333334E+009;1.820199042558670E-001;2.266599237918854E-002;-5.051753832958639E-004;-3.436068072915077E-003;
2.411000000000000E+009;1.809718757867813E-001;2.048614807426930E-002;-4.880603519268334E-004;-3.414015751332045E-003;
2.411166666666667E+009;1.802740842103958E-001;1.810814253985882E-002;-8.260270697064698E-004;-3.576730610802770E-003;
2.411333333333334E+009;1.797546148300171E-001;1.570676080882549E-002;-8.437919896095991E-004;-3.639217000454664E-003;
2.411500000000000E+009;1.794879585504532E-001;1.332746818661690E-002;-9.938812581822276E-004;-3.499258076772094E-003;
2.411666666666667E+009;1.790787726640701E-001;1.105663552880287E-002;-1.177978119812906E-003;-3.544316394254565E-003;
2.411833333333334E+009;1.788221001625061E-001;8.539351634681225E-003;-1.406204188242555E-003;-3.496183780953288E-003;
2.412000000000000E+009;1.790827065706253E-001;5.888763349503279E-003;-1.535027171485126E-003;-3.696135012432933E-003;
2.412166666666667E+009;1.790941804647446E-001;3.422310575842857E-003;-1.589236315339804E-003;-3.547884058207274E-003;
2.412333333333334E+009;1.792348027229309E-001;8.037788211368024E-004;-1.918929163366556E-003;-3.534644609317184E-003;
2.412500000000000E+009;1.796135455369949E-001;-1.494362833909690E-003;-1.993544399738312E-003;-3.481737105175853E-003;
2.412666666666667E+009;1.801861226558685E-001;-4.166982136666775E-003;-2.197436289861798E-003;-3.427065908908844E-003;
2.412833333333334E+009;1.809794455766678E-001;-6.675889249891043E-003;-2.291459124535322E-003;-3.409379394724965E-003;
2.413000000000000E+009;1.817773729562759E-001;-9.027997031807900E-003;-2.327117836102843E-003;-3.309839870780706E-003;
2.413166666666667E+009;1.823515146970749E-001;-1.122129987925291E-002;-2.656345022842288E-003;-3.117925487458706E-003;
2.413333333333334E+009;1.835016310214996E-001;-1.361458469182253E-002;-2.716796239838004E-003;-3.035294124856591E-003;
2.413500000000000E+009;1.844672560691834E-001;-1.591771654784679E-002;-2.818597713485360E-003;-2.847423078492284E-003;
2.413666666666667E+009;1.856048703193665E-001;-1.822862587869167E-002;-2.824031980708242E-003;-2.841494511812925E-003;
2.413833333333334E+009;1.866296231746674E-001;-2.025928720831871E-002;-2.980695571750403E-003;-2.632951596751809E-003;
2.414000000000000E+009;1.878298223018646E-001;-2.215185761451721E-002;-3.031642641872168E-003;-2.578232670202851E-003;
2.414166666666667E+009;1.891866326332092E-001;-2.403402328491211E-002;-3.045138902962208E-003;-2.487150253728032E-003;
2.414333333333334E+009;1.901967823505402E-001;-2.607592754065990E-002;-3.198729129508138E-003;-2.409376436844468E-003;
2.414500000000000E+009;1.914484053850174E-001;-2.748929709196091E-002;-3.229551250115037E-003;-2.239134628325701E-003;
2.414666666666667E+009;1.927080005407333E-001;-2.909343875944614E-002;-3.343567717820406E-003;-2.120596123859286E-003;
2.414833333333334E+009;1.938084810972214E-001;-3.053041920065880E-002;-3.521415404975414E-003;-2.109445165842772E-003;
2.415000000000000E+009;1.950790882110596E-001;-3.173094615340233E-002;-3.623708151280880E-003;-1.999213360249996E-003;
2.415166666666667E+009;1.962296813726425E-001;-3.291000425815582E-002;-3.755812300369144E-003;-2.082692459225655E-003;
2.415333333333334E+009;1.975808143615723E-001;-3.376025706529617E-002;-3.838371718302369E-003;-1.946749864146113E-003;
2.415500000000000E+009;1.986180692911148E-001;-3.446523845195770E-002;-3.909801132977009E-003;-1.851776964031160E-003;
2.415666666666667E+009;1.996813118457794E-001;-3.539247438311577E-002;-4.049605224281550E-003;-1.604736433364451E-003;
2.415833333333334E+009;2.006715089082718E-001;-3.591229394078255E-002;-4.353694152086973E-003;-1.498289289884269E-003;
2.416000000000000E+009;2.014371454715729E-001;-3.651785105466843E-002;-4.456489812582731E-003;-1.217379816807807E-003;
2.416166666666667E+009;2.022144049406052E-001;-3.712221980094910E-002;-4.410191439092159E-003;-9.227513801306486E-004;
2.416333333333334E+009;2.028681933879852E-001;-3.723671287298203E-002;-4.547652322798967E-003;-7.429036777466536E-004;
2.416500000000000E+009;2.034928649663925E-001;-3.747215867042542E-002;-4.434759728610516E-003;-5.909235333092511E-004;
2.416666666666667E+009;2.038210183382034E-001;-3.779284283518791E-002;-4.546025302261114E-003;-2.556344843469560E-004;
2.416833333333334E+009;2.039784342050552E-001;-3.770111501216888E-002;-4.330663476139307E-003;-1.013403234537691E-004;
2.417000000000000E+009;2.041458934545517E-001;-3.774036839604378E-002;-4.348632879555225E-003;1.743174507282674E-004;
2.417166666666667E+009;2.039592415094376E-001;-3.768339008092880E-002;-4.281139932572842E-003;3.333021886646748E-004;
2.417333333333334E+009;2.036999017000198E-001;-3.740957751870155E-002;-4.005292896181345E-003;3.744775312952697E-004;
2.417500000000000E+009;2.035481631755829E-001;-3.744390979409218E-002;-3.994147758930922E-003;5.564982420764864E-004;
2.417666666666667E+009;2.031154036521912E-001;-3.711220249533653E-002;-3.960114438086748E-003;6.364822620525956E-004;
2.417833333333334E+009;2.026152163743973E-001;-3.689136728644371E-002;-3.823765320703387E-003;6.773052155040205E-004;
2.418000000000000E+009;2.020170837640762E-001;-3.653122857213020E-002;-3.667760174721479E-003;8.337243925780058E-004;
2.418166666666667E+009;2.012559175491333E-001;-3.639367222785950E-002;-3.676325082778931E-003;6.337156519293785E-004;
2.418333333333334E+009;2.003976851701737E-001;-3.606428951025009E-002;-3.840402700006962E-003;8.455561473965645E-004;
2.418500000000000E+009;1.994667053222656E-001;-3.617213666439056E-002;-3.882937831804156E-003;8.152546361088753E-004;
2.418666666666667E+009;1.986768543720245E-001;-3.605130687355995E-002;-3.772036638110876E-003;1.028163125738502E-003;
2.418833333333334E+009;1.973058581352234E-001;-3.606150671839714E-002;-3.843654179945588E-003;1.012998516671360E-003;
2.419000000000000E+009;1.961411982774735E-001;-3.626862913370132E-002;-3.868816420435906E-003;1.148422365076840E-003;
2.419166666666667E+009;1.949324756860733E-001;-3.664626553654671E-002;-4.025397356599569E-003;1.283548772335053E-003;
2.419333333333334E+009;1.935210525989533E-001;-3.704030066728592E-002;-3.934226464480162E-003;1.351016690023243E-003;
2.419500000000000E+009;1.920022219419479E-001;-3.745399042963982E-002;-3.956126980483532E-003;1.546349376440048E-003;
2.419666666666667E+009;1.904053837060928E-001;-3.824141249060631E-002;-3.902129363268614E-003;1.875583897344768E-003;
2.419833333333334E+009;1.890229880809784E-001;-3.900054842233658E-002;-3.899118164554238E-003;2.207704819738865E-003;
2.420000000000000E+009;1.874930858612061E-001;-3.980743139982224E-002;-3.809302579611540E-003;2.404725877568126E-003;
2.420166666666667E+009;1.859479397535324E-001;-4.073136299848557E-002;-3.874836955219507E-003;2.632845891639590E-003;
2.420333333333334E+009;1.841939240694046E-001;-4.201175644993782E-002;-3.691588295623660E-003;2.808647928759456E-003;
2.420500000000000E+009;1.825506687164307E-001;-4.325214773416519E-002;-3.546420717611909E-003;2.960216486826539E-003;
2.420666666666667E+009;1.809076219797134E-001;-4.447973519563675E-002;-3.273877082392573E-003;3.065834054723382E-003;
2.420833333333334E+009;1.792536526918411E-001;-4.599558562040329E-002;-2.935225609689951E-003;3.272801637649536E-003;
2.421000000000000E+009;1.776955276727676E-001;-4.762117937207222E-002;-2.871609758585692E-003;3.515139454975724E-003;
2.421166666666667E+009;1.762033253908157E-001;-4.934383183717728E-002;-2.446585800498724E-003;3.340421011671424E-003;
2.421333333333334E+009;1.745726913213730E-001;-5.098255351185799E-002;-2.258617430925369E-003;3.622189862653613E-003;
2.421500000000000E+009;1.732923388481140E-001;-5.290043726563454E-002;-1.923258882015944E-003;3.523142077028751E-003;
2.421666666666667E+009;1.720441728830338E-001;-5.487031117081642E-002;-1.885607489384711E-003;3.501784987747669E-003;
2.421833333333334E+009;1.707989573478699E-001;-5.661631375551224E-002;-1.569368992932141E-003;3.549990942701697E-003;
2.422000000000000E+009;1.696457564830780E-001;-5.839204415678978E-002;-1.399729633703828E-003;3.376947715878487E-003;
2.422166666666667E+009;1.686414033174515E-001;-6.063763424754143E-002;-1.294645830057561E-003;3.183293854817748E-003;
2.422333333333334E+009;1.678511202335358E-001;-6.254140287637711E-002;-1.164847286418080E-003;3.101777983829379E-003;
2.422500000000000E+009;1.669919043779373E-001;-6.441520154476166E-002;-1.075042877346277E-003;3.120545530691743E-003;
2.422666666666667E+009;1.664616316556931E-001;-6.660336256027222E-002;-9.040398872457445E-004;2.947630593553186E-003;
2.422833333333334E+009;1.658657491207123E-001;-6.855172663927078E-002;-8.964909357018769E-004;2.903220942243934E-003;
2.423000000000000E+009;1.655627489089966E-001;-7.069802284240723E-002;-9.081649477593601E-004;2.905974863097072E-003;
2.423166666666667E+009;1.650637835264206E-001;-7.265340536832809E-002;-8.929052273742855E-004;2.664042869582772E-003;
2.423333333333334E+009;1.649762541055679E-001;-7.464098930358887E-002;-6.679825601167977E-004;2.644797787070274E-003;
2.423500000000000E+009;1.647645682096481E-001;-7.650264352560043E-002;-8.990401984192431E-004;2.584156580269337E-003;
2.423666666666667E+009;1.649744063615799E-001;-7.835768908262253E-002;-9.408212499693036E-004;2.519417088478804E-003;
2.423833333333334E+009;1.649082601070404E-001;-8.025454729795456E-002;-8.832504972815514E-004;2.730309264734387E-003;
2.424000000000000E+009;1.651292592287064E-001;-8.197259902954102E-002;-9.793924400582910E-004;2.669356530532241E-003;
2.424166666666667E+009;1.652693897485733E-001;-8.349635452032089E-002;-1.001293421722949E-003;2.623382955789566E-003;
2.424333333333334E+009;1.655700653791428E-001;-8.510520309209824E-002;-9.148374665528536E-004;2.660819794982672E-003;
2.424500000000000E+009;1.660698056221008E-001;-8.698394894599915E-002;-1.002858858555555E-003;2.812062855809927E-003;
2.424666666666667E+009;1.663503944873810E-001;-8.838506042957306E-002;-1.032197964377701E-003;2.814180217683315E-003;
2.424833333333334E+009;1.671577990055084E-001;-8.956752717494965E-002;-8.754662121646106E-004;2.816165331751108E-003;
2.425000000000000E+009;1.675666123628616E-001;-9.065969288349152E-002;-8.964416920207441E-004;2.898223930969834E-003;
2.425166666666667E+009;1.681068241596222E-001;-9.176420420408249E-002;-9.012821246869862E-004;2.771816914901137E-003;
2.425333333333334E+009;1.684663295745850E-001;-9.280952066183090E-002;-8.099424303509295E-004;3.003303427249193E-003;
2.425500000000000E+009;1.689882278442383E-001;-9.385370463132858E-002;-8.043258567340672E-004;3.171262796968222E-003;
2.425666666666667E+009;1.695499271154404E-001;-9.444113075733185E-002;-6.582383648492396E-004;3.075178712606430E-003;
2.425833333333334E+009;1.701027154922485E-001;-9.532456099987030E-002;-6.840493297204375E-004;3.287561703473330E-003;
2.426000000000000E+009;1.707104593515396E-001;-9.566563367843628E-002;-5.929687758907676E-004;3.138631116598845E-003;
2.426166666666667E+009;1.712611913681030E-001;-9.638229012489319E-002;-4.339920415077359E-004;3.319661365821958E-003;
2.426333333333334E+009;1.713424026966095E-001;-9.677664190530777E-002;-1.957724889507517E-004;3.295989008620381E-003;
2.426500000000000E+009;1.720624417066574E-001;-9.713108837604523E-002;-2.214176201960072E-004;3.425525035709143E-003;
2.426666666666667E+009;1.724565327167511E-001;-9.749455749988556E-002;-2.146728802472353E-004;3.450907068327069E-003;
2.426833333333334E+009;1.728877574205399E-001;-9.771311283111572E-002;6.352416676236317E-005;3.338746493682265E-003;
2.427000000000000E+009;1.729726791381836E-001;-9.800340235233307E-002;-9.543319174554199E-005;3.474447876214981E-003;
2.427166666666667E+009;1.731710284948349E-001;-9.818416833877564E-002;5.585148755926639E-005;3.610970219597220E-003;
2.427333333333334E+009;1.732119768857956E-001;-9.841585904359818E-002;2.995716640725732E-004;3.588364226743579E-003;
2.427500000000000E+009;1.730636805295944E-001;-9.879220277070999E-002;2.511489146854729E-004;3.490518545731902E-003;
2.427666666666667E+009;1.728314310312271E-001;-9.883807599544525E-002;4.579118394758552E-004;3.568334039300680E-003;
