# Version 1.00
#
freq[Hz];re:Trc1_S11;im:Trc1_S11;re:Trc2_S21;im:Trc2_S21;
2.400000000000000E+009;1.497137546539307E-001;1.133848205208778E-001;7.073039654642344E-003;6.884363829158247E-004;
2.400166666666667E+009;1.496052891016007E-001;1.112637072801590E-001;7.210850715637207E-003;3.128175740130246E-004;
2.400333333333334E+009;1.498352885246277E-001;1.091619506478310E-001;7.251072674989700E-003;-3.625674580689520E-004;
2.400500000000000E+009;1.497822105884552E-001;1.065429449081421E-001;7.236593868583441E-003;-8.124695741571486E-004;
2.400666666666667E+009;1.499276161193848E-001;1.041389629244804E-001;7.255380973219872E-003;-1.307181548327208E-003;
2.400833333333334E+009;1.501217186450958E-001;1.013552695512772E-001;7.054430898278952E-003;-1.824752893298864E-003;
2.401000000000000E+009;1.503424495458603E-001;9.867145866155624E-002;6.914797704666853E-003;-2.353605115786195E-003;
2.401166666666667E+009;1.507454663515091E-001;9.601339697837830E-002;6.556585431098938E-003;-2.906883135437965E-003;
2.401333333333334E+009;1.511558145284653E-001;9.316834062337875E-002;6.089289672672749E-003;-3.277416108176112E-003;
2.401500000000000E+009;1.517064422369003E-001;9.036623686552048E-002;5.766055081039667E-003;-3.520793747156858E-003;
2.401666666666667E+009;1.522439569234848E-001;8.752181380987167E-002;5.594399757683277E-003;-3.738545579835773E-003;
2.401833333333334E+009;1.531026512384415E-001;8.481341600418091E-002;5.066491663455963E-003;-4.149223212152720E-003;
2.402000000000000E+009;1.541043967008591E-001;8.213639259338379E-002;4.662925377488136E-003;-4.290109500288963E-003;
2.402166666666667E+009;1.551344245672226E-001;7.955326884984970E-002;4.056889563798904E-003;-4.261667374521494E-003;
2.402333333333334E+009;1.561117619276047E-001;7.684701681137085E-002;3.893126733601093E-003;-4.367979709059000E-003;
2.402500000000000E+009;1.575039476156235E-001;7.431809604167938E-002;3.594506764784455E-003;-4.515330772846937E-003;
2.402666666666667E+009;1.588083356618881E-001;7.190663367509842E-002;3.149309661239386E-003;-4.221751354634762E-003;
2.402833333333334E+009;1.604709625244141E-001;6.950399279594421E-002;2.849288750439882E-003;-4.378293640911579E-003;
2.403000000000000E+009;1.619150936603546E-001;6.727690249681473E-002;2.646466251462698E-003;-4.144075326621532E-003;
2.403166666666667E+009;1.638554483652115E-001;6.489161401987076E-002;2.338629681617022E-003;-4.242532886564732E-003;
2.403333333333334E+009;1.656570136547089E-001;6.290448457002640E-002;2.212694147601724E-003;-4.110506735742092E-003;
2.403500000000000E+009;1.675053238868713E-001;6.079008430242539E-002;2.052667317911983E-003;-4.185342229902744E-003;
2.403666666666667E+009;1.695013195276260E-001;5.880570039153099E-002;1.821231329813600E-003;-3.978871274739504E-003;
2.403833333333334E+009;1.715237200260162E-001;5.687366425991058E-002;1.634613261558116E-003;-4.080185201019049E-003;
2.404000000000000E+009;1.731504797935486E-001;5.498062074184418E-002;1.530467765405774E-003;-3.929847385734320E-003;
2.404166666666667E+009;1.752164065837860E-001;5.347575619816780E-002;1.328461919911206E-003;-3.863157471641898E-003;
2.404333333333334E+009;1.769422590732575E-001;5.186515673995018E-002;1.112419995479286E-003;-3.856409573927522E-003;
2.404500000000000E+009;1.790192425251007E-001;5.040118470788002E-002;1.105039846152067E-003;-3.771440126001835E-003;
2.404666666666667E+009;1.807209402322769E-001;4.916985705494881E-002;1.071787206456065E-003;-3.710005665197969E-003;
2.404833333333334E+009;1.825132071971893E-001;4.799607396125794E-002;8.888075826689601E-004;-3.724584821611643E-003;
2.405000000000000E+009;1.840989738702774E-001;4.730670526623726E-002;5.530862254090607E-004;-3.740066895261407E-003;
2.405166666666667E+009;1.856545656919479E-001;4.644142836332321E-002;6.963604828342795E-004;-3.594028064981103E-003;
2.405333333333334E+009;1.872412860393524E-001;4.603505507111549E-002;6.886842893436551E-004;-3.665569238364697E-003;
2.405500000000000E+009;1.887741535902023E-001;4.552530124783516E-002;3.809966146945953E-004;-3.364587435498834E-003;
2.405666666666667E+009;1.901815831661224E-001;4.505646228790283E-002;1.693018130026758E-004;-3.450870281085372E-003;
2.405833333333334E+009;1.916137933731079E-001;4.465885460376740E-002;1.036260946420953E-004;-3.286960767582059E-003;
2.406000000000000E+009;1.926498711109161E-001;4.452971369028091E-002;4.586414797813632E-005;-3.165903268381953E-003;
2.406166666666667E+009;1.938183307647705E-001;4.428774490952492E-002;-9.368483006255701E-005;-2.954720752313733E-003;
2.406333333333334E+009;1.948736757040024E-001;4.439347237348557E-002;-1.969996228581294E-004;-2.970348345115781E-003;
2.406500000000000E+009;1.957858353853226E-001;4.416614025831223E-002;-1.564062404213473E-004;-2.805478405207396E-003;
2.406666666666667E+009;1.965389102697372E-001;4.423848912119865E-002;-1.933795138029382E-004;-2.642821287736297E-003;
2.406833333333334E+009;1.971329450607300E-001;4.413485154509544E-002;-1.387569354847074E-004;-2.560497494414449E-003;
2.407000000000000E+009;1.974081397056580E-001;4.427452385425568E-002;-1.006111124297604E-004;-2.533967606723309E-003;
2.407166666666667E+009;1.979721635580063E-001;4.390025138854981E-002;-2.075643715215847E-004;-2.425997750833631E-003;
2.407333333333334E+009;1.979220360517502E-001;4.406108707189560E-002;-3.895292684319429E-005;-2.362668747082353E-003;
2.407500000000000E+009;1.979192942380905E-001;4.397747293114662E-002;-1.450715644750744E-004;-2.373880008235574E-003;
2.407666666666667E+009;1.979465186595917E-001;4.398981109261513E-002;3.085382195422426E-005;-2.356667770072818E-003;
2.407833333333334E+009;1.974241435527802E-001;4.377599060535431E-002;-5.503879219759256E-005;-2.353437012061477E-003;
2.408000000000000E+009;1.972793489694595E-001;4.367881640791893E-002;-2.130331449734513E-005;-2.311065327376127E-003;
2.408166666666667E+009;1.967658251523972E-001;4.326759651303291E-002;1.219801124534570E-004;-2.370603149756789E-003;
2.408333333333334E+009;1.962016820907593E-001;4.275836795568466E-002;1.430509291822091E-004;-2.505644690245390E-003;
2.408500000000000E+009;1.954513788223267E-001;4.232053831219673E-002;2.973418741021305E-004;-2.591518685221672E-003;
2.408666666666667E+009;1.947484314441681E-001;4.185949638485909E-002;2.264329232275486E-004;-2.322418149560690E-003;
2.408833333333334E+009;1.940453499555588E-001;4.098491370677948E-002;2.551834040787071E-004;-2.491344464942813E-003;
2.409000000000000E+009;1.929338723421097E-001;4.013836756348610E-002;2.010933967540041E-004;-2.505728974938393E-003;
2.409166666666667E+009;1.918943524360657E-001;3.908833488821983E-002;2.129448985215277E-004;-2.801795955747366E-003;
2.409333333333334E+009;1.910141855478287E-001;3.815655410289764E-002;2.600461011752486E-004;-2.718195319175720E-003;
2.409500000000000E+009;1.895227134227753E-001;3.679740801453590E-002;2.019830280914903E-004;-2.775430446490645E-003;
2.409666666666667E+009;1.886391341686249E-001;3.551095351576805E-002;2.547150070313364E-004;-2.926719142124057E-003;
2.409833333333334E+009;1.874270439147949E-001;3.397418558597565E-002;-1.925453034345992E-005;-3.013218985870481E-003;
2.410000000000000E+009;1.864295899868012E-001;3.248490020632744E-002;1.783017978596035E-005;-3.083566203713417E-003;
2.410166666666667E+009;1.853687018156052E-001;3.071666881442070E-002;-7.102484960341826E-005;-3.177860751748085E-003;
2.410333333333334E+009;1.843237876892090E-001;2.886803820729256E-002;-3.845289393211715E-005;-3.409748664125800E-003;
2.410500000000000E+009;1.832466274499893E-001;2.713426016271114E-002;-2.880168904084712E-004;-3.399687586352229E-003;
2.410666666666667E+009;1.822929382324219E-001;2.479339018464088E-002;-3.129917313344777E-004;-3.410626202821732E-003;
2.410833333333334E+009;1.817224174737930E-001;2.262104488909245E-002;-3.073362750001252E-004;-3.546533407643437E-003;
2.411000000000000E+009;1.808608621358872E-001;2.044096961617470E-002;-6.934631383046508E-004;-3.578250063583255E-003;
2.411166666666667E+009;1.801963448524475E-001;1.808830536901951E-002;-6.239918293431401E-004;-3.572978544980288E-003;
2.411333333333334E+009;1.796479821205139E-001;1.559869386255741E-002;-8.627039496786892E-004;-3.657443216070533E-003;
2.411500000000000E+009;1.792443394660950E-001;1.327190268784761E-002;-9.904443286359310E-004;-3.730659373104572E-003;
2.411666666666667E+009;1.790266931056976E-001;1.087447162717581E-002;-1.278630923479796E-003;-3.621149575337768E-003;
2.411833333333334E+009;1.786711513996124E-001;8.311675861477852E-003;-1.257371972315013E-003;-3.799313446506858E-003;
2.412000000000000E+009;1.788411885499954E-001;5.835679825395346E-003;-1.448053983040154E-003;-3.658469300717115E-003;
2.412166666666667E+009;1.788645386695862E-001;3.372012171894312E-003;-1.664067036472261E-003;-3.744048764929175E-003;
2.412333333333334E+009;1.791249811649323E-001;8.474731002934277E-004;-1.840295153670013E-003;-3.597401082515717E-003;
2.412500000000000E+009;1.794287115335465E-001;-1.635965891182423E-003;-1.890095416456461E-003;-3.580496646463871E-003;
2.412666666666667E+009;1.800556927919388E-001;-4.139821510761976E-003;-2.118988428264856E-003;-3.363889176398516E-003;
2.412833333333334E+009;1.806198060512543E-001;-6.595986895263195E-003;-2.298938808962703E-003;-3.409890923649073E-003;
2.413000000000000E+009;1.812133789062500E-001;-8.825184777379036E-003;-2.548260847106576E-003;-3.381624352186918E-003;
2.413166666666667E+009;1.822717785835266E-001;-1.126501988619566E-002;-2.592856064438820E-003;-3.138301661238074E-003;
2.413333333333334E+009;1.832142919301987E-001;-1.358051877468824E-002;-2.747017890214920E-003;-3.130472963675857E-003;
2.413500000000000E+009;1.841140538454056E-001;-1.578036323189735E-002;-2.837891224771738E-003;-2.977055264636874E-003;
2.413666666666667E+009;1.854720711708069E-001;-1.816448941826820E-002;-2.945702522993088E-003;-2.714061178267002E-003;
2.413833333333334E+009;1.864067912101746E-001;-2.002093568444252E-002;-2.958464901894331E-003;-2.710614819079638E-003;
2.414000000000000E+009;1.876075118780136E-001;-2.214104123413563E-002;-3.048484213650227E-003;-2.640894381329417E-003;
2.414166666666667E+009;1.890034526586533E-001;-2.405475452542305E-002;-3.117509419098496E-003;-2.581473439931870E-003;
2.414333333333334E+009;1.901292800903320E-001;-2.594371326267719E-002;-3.188076196238399E-003;-2.453837310895324E-003;
2.414500000000000E+009;1.913845092058182E-001;-2.747187018394470E-002;-3.324778284877539E-003;-2.505180891603231E-003;
2.414666666666667E+009;1.925789713859558E-001;-2.894409932196140E-002;-3.248031949624419E-003;-2.207734156399965E-003;
2.414833333333334E+009;1.938092559576035E-001;-3.039019927382469E-002;-3.384995972737670E-003;-2.209065016359091E-003;
2.415000000000000E+009;1.949932128190994E-001;-3.159543126821518E-002;-3.457566723227501E-003;-2.127884188666940E-003;
2.415166666666667E+009;1.962330043315888E-001;-3.280521184206009E-002;-3.658804344013333E-003;-2.118552569299936E-003;
2.415333333333334E+009;1.973434388637543E-001;-3.372707962989807E-002;-3.652568208053708E-003;-1.924365176819265E-003;
2.415500000000000E+009;1.984672695398331E-001;-3.445510193705559E-002;-4.028161056339741E-003;-1.849863678216934E-003;
2.415666666666667E+009;1.994924396276474E-001;-3.533667325973511E-002;-3.859051968902350E-003;-1.735209836624563E-003;
2.415833333333334E+009;2.004476636648178E-001;-3.591070696711540E-002;-4.227178636938334E-003;-1.505861524492502E-003;
2.416000000000000E+009;2.011984884738922E-001;-3.652646020054817E-002;-4.390499088913202E-003;-1.246153842657805E-003;
2.416166666666667E+009;2.020401358604431E-001;-3.701071813702583E-002;-4.443978425115347E-003;-1.125094946473837E-003;
2.416333333333334E+009;2.025946378707886E-001;-3.719304502010346E-002;-4.496230743825436E-003;-8.916111546568573E-004;
2.416500000000000E+009;2.032330930233002E-001;-3.737979754805565E-002;-4.596460610628128E-003;-6.094183772802353E-004;
2.416666666666667E+009;2.034169435501099E-001;-3.769310936331749E-002;-4.381980746984482E-003;-2.003526606131345E-004;
2.416833333333334E+009;2.036406248807907E-001;-3.766968473792076E-002;-4.325604066252708E-003;4.564183836919256E-005;
2.417000000000000E+009;2.037890404462814E-001;-3.770937770605087E-002;-4.509526304900646E-003;1.301487791351974E-004;
2.417166666666667E+009;2.037140578031540E-001;-3.757876902818680E-002;-4.082019440829754E-003;3.702203975990415E-004;
2.417333333333334E+009;2.034847736358643E-001;-3.729530051350594E-002;-4.162850789725781E-003;3.050209488719702E-004;
2.417500000000000E+009;2.032874673604965E-001;-3.723959997296333E-002;-4.135768394917250E-003;5.653272382915020E-004;
2.417666666666667E+009;2.027838826179504E-001;-3.704299405217171E-002;-3.846333827823401E-003;5.841965903528035E-004;
2.417833333333334E+009;2.024703919887543E-001;-3.664670884609222E-002;-3.828491084277630E-003;5.957064568065107E-004;
2.418000000000000E+009;2.018700093030930E-001;-3.634399920701981E-002;-3.895472036674619E-003;6.879199645482004E-004;
2.418166666666667E+009;2.012778967618942E-001;-3.629930317401886E-002;-3.856709925457835E-003;6.582043715752661E-004;
2.418333333333334E+009;2.003043740987778E-001;-3.595516085624695E-002;-3.665021155029535E-003;8.386728586629033E-004;
2.418500000000000E+009;1.992648094892502E-001;-3.596888110041618E-002;-3.787006018683314E-003;7.845640066079795E-004;
2.418666666666667E+009;1.984756141901016E-001;-3.582731634378433E-002;-3.875764319673181E-003;9.423860465176404E-004;
2.418833333333334E+009;1.973035037517548E-001;-3.591328114271164E-002;-3.850204637274146E-003;1.115945982746780E-003;
2.419000000000000E+009;1.960203945636749E-001;-3.608181327581406E-002;-3.920280840247870E-003;1.181393163278699E-003;
2.419166666666667E+009;1.947102695703507E-001;-3.635637462139130E-002;-4.031567834317684E-003;1.216392498463392E-003;
2.419333333333334E+009;1.934279948472977E-001;-3.676023334264755E-002;-4.006423056125641E-003;1.356403925456107E-003;
2.419500000000000E+009;1.920132637023926E-001;-3.719481825828552E-002;-4.036613740026951E-003;1.647039898671210E-003;
2.419666666666667E+009;1.905221045017242E-001;-3.797768801450729E-002;-3.962412476539612E-003;1.843585399910808E-003;
2.419833333333334E+009;1.889075785875320E-001;-3.876052796840668E-002;-3.846728708595038E-003;2.152287168428302E-003;
2.420000000000000E+009;1.875437051057816E-001;-3.964826092123985E-002;-3.825332736596465E-003;2.298627980053425E-003;
2.420166666666667E+009;1.858255714178085E-001;-4.052450135350227E-002;-3.860970027744770E-003;2.646722598001361E-003;
2.420333333333334E+009;1.842274814844132E-001;-4.187614098191261E-002;-3.710600314661861E-003;2.743199001997709E-003;
2.420500000000000E+009;1.825162321329117E-001;-4.309045150876045E-002;-3.620814299210906E-003;2.936841221526265E-003;
2.420666666666667E+009;1.810198426246643E-001;-4.435750097036362E-002;-3.398992586880922E-003;3.201297949999571E-003;
2.420833333333334E+009;1.792246550321579E-001;-4.594151675701141E-002;-3.197409445419908E-003;3.276321804150939E-003;
2.421000000000000E+009;1.778047829866409E-001;-4.738029092550278E-002;-2.782322932034731E-003;3.400571178644896E-003;
2.421166666666667E+009;1.762929260730743E-001;-4.933812096714973E-002;-2.659817459061742E-003;3.489289898425341E-003;
2.421333333333334E+009;1.746671050786972E-001;-5.078933760523796E-002;-2.313874429091811E-003;3.512624185532332E-003;
2.421500000000000E+009;1.733524054288864E-001;-5.284496769309044E-002;-2.161167794838548E-003;3.534775227308273E-003;
2.421666666666667E+009;1.720266640186310E-001;-5.459583178162575E-002;-1.791454269550741E-003;3.419479588046670E-003;
2.421833333333334E+009;1.708625406026840E-001;-5.654475092887878E-002;-1.654801424592733E-003;3.490888746455312E-003;
2.422000000000000E+009;1.696675121784210E-001;-5.853129178285599E-002;-1.412910758517683E-003;3.298357361927629E-003;
2.422166666666667E+009;1.689632683992386E-001;-6.056811287999153E-002;-1.427982700988650E-003;3.321840427815914E-003;
2.422333333333334E+009;1.678437590599060E-001;-6.254747509956360E-002;-1.216708100400865E-003;3.140967804938555E-003;
2.422500000000000E+009;1.670943945646286E-001;-6.442646682262421E-002;-1.112121623009443E-003;3.016698174178600E-003;
2.422666666666667E+009;1.663300395011902E-001;-6.637343764305115E-002;-9.906782070174813E-004;2.981660654768348E-003;
2.422833333333334E+009;1.659701168537140E-001;-6.863079220056534E-002;-9.482950554229319E-004;2.948404056951404E-003;
2.423000000000000E+009;1.653562784194946E-001;-7.060860842466354E-002;-9.132262784987688E-004;2.811368321999908E-003;
2.423166666666667E+009;1.649985313415527E-001;-7.253335416316986E-002;-7.869922555983067E-004;2.760261995717883E-003;
2.423333333333334E+009;1.650508642196655E-001;-7.469030469655991E-002;-9.613533620722592E-004;2.677571261301637E-003;
2.423500000000000E+009;1.648638099431992E-001;-7.647214829921722E-002;-9.779032552614808E-004;2.528446493670344E-003;
2.423666666666667E+009;1.649850755929947E-001;-7.830400019884110E-002;-8.841989329084754E-004;2.559822984039784E-003;
2.423833333333334E+009;1.650492250919342E-001;-8.006539940834045E-002;-8.755724993534386E-004;2.552860882133246E-003;
2.424000000000000E+009;1.651626378297806E-001;-8.181224018335342E-002;-9.560220642015338E-004;2.740261144936085E-003;
2.424166666666667E+009;1.652883440256119E-001;-8.348961919546127E-002;-9.964043274521828E-004;2.475162735208869E-003;
2.424333333333334E+009;1.656490564346314E-001;-8.505445718765259E-002;-8.390413131564856E-004;2.597917336970568E-003;
2.424500000000000E+009;1.661000847816467E-001;-8.674219995737076E-002;-9.915059199556708E-004;2.580455038696528E-003;
2.424666666666667E+009;1.663713008165360E-001;-8.807668089866638E-002;-9.161157067865133E-004;2.859371481463313E-003;
2.424833333333334E+009;1.671769917011261E-001;-8.940065652132034E-002;-8.929601754061878E-004;2.884871093556285E-003;
2.425000000000000E+009;1.675060093402863E-001;-9.057369083166122E-002;-8.978903642855585E-004;3.018346847966313E-003;
2.425166666666667E+009;1.680247187614441E-001;-9.161631017923355E-002;-9.089114610105753E-004;2.771242521703243E-003;
2.425333333333334E+009;1.684281378984451E-001;-9.263798594474793E-002;-6.459747673943639E-004;2.880370244383812E-003;
2.425500000000000E+009;1.689799427986145E-001;-9.364674985408783E-002;-8.593931561335921E-004;3.107894677668810E-003;
2.425666666666667E+009;1.696237772703171E-001;-9.430693835020065E-002;-5.372800515033305E-004;3.106036689132452E-003;
2.425833333333334E+009;1.700961887836456E-001;-9.510213136672974E-002;-4.715152026619762E-004;3.119416302070022E-003;
2.426000000000000E+009;1.705960780382156E-001;-9.559810906648636E-002;-4.792234976775944E-004;3.225085791200399E-003;
2.426166666666667E+009;1.711816489696503E-001;-9.609143435955048E-002;-5.278855096548796E-004;3.227875102311373E-003;
2.426333333333334E+009;1.715414375066757E-001;-9.669123589992523E-002;-3.541187033988535E-004;3.426257055252791E-003;
2.426500000000000E+009;1.720355302095413E-001;-9.694426506757736E-002;-2.371773152844980E-004;3.426421433687210E-003;
2.426666666666667E+009;1.723931878805161E-001;-9.736321121454239E-002;-1.819158205762506E-004;3.509838134050369E-003;
2.426833333333334E+009;1.728348881006241E-001;-9.762410819530487E-002;-1.001812779577449E-004;3.286749590188265E-003;
2.427000000000000E+009;1.729871481657028E-001;-9.785996377468109E-002;1.614731736481190E-004;3.452136414125562E-003;
2.427166666666667E+009;1.731363087892532E-001;-9.805968403816223E-002;6.398370169335976E-005;3.457156009972096E-003;
2.427333333333334E+009;1.732071936130524E-001;-9.831942617893219E-002;2.810206206049770E-004;3.616578876972199E-003;
2.427500000000000E+009;1.731326133012772E-001;-9.849850833415985E-002;4.007503157481551E-004;3.522309474647045E-003;
2.427666666666667E+009;1.729426980018616E-001;-9.867611527442932E-002;4.379531892482191E-004;3.636730136349797E-003;
