# Version 1.00
#
freq[Hz];re:Trc1_S11;im:Trc1_S11;re:Trc2_S21;im:Trc2_S21;
2.400000000000000E+009;1.496804654598236E-001;1.136488988995552E-001;6.971065420657396E-003;6.562339840456843E-004;
2.400166666666667E+009;1.496353298425674E-001;1.114608049392700E-001;7.314296439290047E-003;6.360105908242986E-005;
2.400333333333334E+009;1.496861577033997E-001;1.092533469200134E-001;7.375969085842371E-003;-2.860895765479654E-004;
2.400500000000000E+009;1.497257798910141E-001;1.065943837165833E-001;7.333985529839993E-003;-8.535368833690882E-004;
2.400666666666667E+009;1.499477028846741E-001;1.040791943669319E-001;7.297576405107975E-003;-1.301938551478088E-003;
2.400833333333334E+009;1.500664353370667E-001;1.013997420668602E-001;7.190298754721880E-003;-1.708512427285314E-003;
2.401000000000000E+009;1.504867225885391E-001;9.859129786491394E-002;6.809281185269356E-003;-2.374135656282306E-003;
2.401166666666667E+009;1.505318433046341E-001;9.600755572319031E-002;6.576800253242254E-003;-2.868528710678220E-003;
2.401333333333334E+009;1.511436700820923E-001;9.318374842405319E-002;6.199305411428213E-003;-3.323436947539449E-003;
2.401500000000000E+009;1.517059952020645E-001;9.030384570360184E-002;5.830031819641590E-003;-3.445524256676436E-003;
2.401666666666667E+009;1.523054689168930E-001;8.751755952835083E-002;5.289417225867510E-003;-3.876027883961797E-003;
2.401833333333334E+009;1.529383361339569E-001;8.505626022815704E-002;5.021949298679829E-003;-4.066961817443371E-003;
2.402000000000000E+009;1.540223360061646E-001;8.219239115715027E-002;4.748881794512272E-003;-4.357380326837301E-003;
2.402166666666667E+009;1.549043953418732E-001;7.952985912561417E-002;4.146470222622156E-003;-4.311438184231520E-003;
2.402333333333334E+009;1.561286747455597E-001;7.693915814161301E-002;3.822947153821588E-003;-4.272236954420805E-003;
2.402500000000000E+009;1.574184149503708E-001;7.444410026073456E-002;3.405561670660973E-003;-4.533380735665560E-003;
2.402666666666667E+009;1.587661206722260E-001;7.201622426509857E-002;3.143961308524013E-003;-4.395086318254471E-003;
2.402833333333334E+009;1.603611409664154E-001;6.959676742553711E-002;2.879671519622207E-003;-4.348138347268105E-003;
2.403000000000000E+009;1.619713604450226E-001;6.736352294683456E-002;2.657912438735366E-003;-4.445848055183888E-003;
2.403166666666667E+009;1.639038920402527E-001;6.508040428161621E-002;2.310509327799082E-003;-4.220351111143827E-003;
2.403333333333334E+009;1.655096411705017E-001;6.284070014953613E-002;2.024520654231310E-003;-4.307538736611605E-003;
2.403500000000000E+009;1.674407571554184E-001;6.079133227467537E-002;2.129862550646067E-003;-3.992930520325899E-003;
2.403666666666667E+009;1.696156561374664E-001;5.891095101833344E-002;1.822181860916317E-003;-4.014571197330952E-003;
2.403833333333334E+009;1.714863926172257E-001;5.686884000897408E-002;1.670884434133768E-003;-3.997372463345528E-003;
2.404000000000000E+009;1.731960028409958E-001;5.521937459707260E-002;1.485106651671231E-003;-3.941185306757689E-003;
2.404166666666667E+009;1.752251237630844E-001;5.360631644725800E-002;1.248267129994929E-003;-3.806585213169456E-003;
2.404333333333334E+009;1.771772652864456E-001;5.201875790953636E-002;1.250964822247624E-003;-3.843683749437332E-003;
2.404500000000000E+009;1.787537038326263E-001;5.046818405389786E-002;1.057712594047189E-003;-3.740816377103329E-003;
2.404666666666667E+009;1.807253211736679E-001;4.925348982214928E-002;9.807674214243889E-004;-3.825381863862276E-003;
2.404833333333334E+009;1.826227903366089E-001;4.805696383118630E-002;8.860323578119278E-004;-3.686560550704598E-003;
2.405000000000000E+009;1.840747594833374E-001;4.744147881865501E-002;6.172375869937241E-004;-3.685085102915764E-003;
2.405166666666667E+009;1.857573986053467E-001;4.656599834561348E-002;7.178618106991053E-004;-3.644007490947843E-003;
2.405333333333334E+009;1.872704178094864E-001;4.591772332787514E-002;3.684156690724194E-004;-3.463106462731957E-003;
2.405500000000000E+009;1.888851821422577E-001;4.549755901098251E-002;4.370133392512798E-004;-3.576703835278750E-003;
2.405666666666667E+009;1.903562545776367E-001;4.512283951044083E-002;1.813516282709315E-004;-3.454074962064624E-003;
2.405833333333334E+009;1.917849779129028E-001;4.488936811685562E-002;6.416704854927957E-005;-3.264548489823937E-003;
2.406000000000000E+009;1.929828822612763E-001;4.447073489427567E-002;1.244023296749219E-004;-3.273060312494636E-003;
2.406166666666667E+009;1.940282583236694E-001;4.429336264729500E-002;-1.501901133451611E-004;-3.108951030299068E-003;
2.406333333333334E+009;1.950580030679703E-001;4.436743631958962E-002;-1.286748010898009E-004;-2.935624681413174E-003;
2.406500000000000E+009;1.958482116460800E-001;4.419054836034775E-002;-1.100287117878906E-004;-2.982059959322214E-003;
2.406666666666667E+009;1.966038495302200E-001;4.421149939298630E-002;-2.105763123836368E-004;-2.869128715246916E-003;
2.406833333333334E+009;1.972965002059937E-001;4.419421404600143E-002;-3.536430012900382E-004;-2.730263862758875E-003;
2.407000000000000E+009;1.976051032543182E-001;4.436870291829109E-002;-7.508470298489556E-005;-2.631773240864277E-003;
2.407166666666667E+009;1.980883032083511E-001;4.408033937215805E-002;-3.374927327968180E-004;-2.515504602342844E-003;
2.407333333333334E+009;1.980707794427872E-001;4.410517960786820E-002;-1.076008338714019E-004;-2.332090167328715E-003;
2.407500000000000E+009;1.979730427265167E-001;4.415246099233627E-002;-5.478364619193599E-005;-2.229330129921436E-003;
2.407666666666667E+009;1.980167329311371E-001;4.401377961039543E-002;-3.519572055665776E-005;-2.247659722343087E-003;
2.407833333333334E+009;1.975486725568771E-001;4.385811462998390E-002;-1.341915922239423E-004;-2.304732333868742E-003;
2.408000000000000E+009;1.974846720695496E-001;4.364293813705444E-002;7.956310582812876E-005;-2.311695367097855E-003;
2.408166666666667E+009;1.967699080705643E-001;4.335680976510048E-002;1.247658947249875E-004;-2.385537140071392E-003;
2.408333333333334E+009;1.962819695472717E-001;4.280184581875801E-002;6.641232175752521E-005;-2.455573529005051E-003;
2.408500000000000E+009;1.954972296953201E-001;4.243898019194603E-002;2.273656573379412E-004;-2.277988241985440E-003;
2.408666666666667E+009;1.948123723268509E-001;4.189260303974152E-002;2.735461457632482E-004;-2.467649057507515E-003;
2.408833333333334E+009;1.940321028232575E-001;4.111253842711449E-002;2.984161546919495E-004;-2.543511800467968E-003;
2.409000000000000E+009;1.930234432220459E-001;4.025491327047348E-002;2.695028670132160E-004;-2.507632831111550E-003;
2.409166666666667E+009;1.919724792242050E-001;3.931999951601028E-002;1.820644974941388E-004;-2.610284369438887E-003;
2.409333333333334E+009;1.910677403211594E-001;3.825500607490540E-002;1.908158592414111E-004;-2.606757683679462E-003;
2.409500000000000E+009;1.897385716438294E-001;3.698809072375298E-002;2.870812604669482E-004;-2.821658970788121E-003;
2.409666666666667E+009;1.886091083288193E-001;3.551910072565079E-002;1.153325501945801E-004;-2.933121751993895E-003;
2.409833333333334E+009;1.874529570341110E-001;3.426788374781609E-002;1.223002036567777E-004;-2.949675079435110E-003;
2.410000000000000E+009;1.865878403186798E-001;3.259696066379547E-002;-7.639863906661049E-005;-3.060168353840709E-003;
2.410166666666667E+009;1.853823214769363E-001;3.073764219880104E-002;2.027720984187909E-005;-3.137910040095449E-003;
2.410333333333334E+009;1.845076829195023E-001;2.915769070386887E-002;-3.561453195288777E-005;-3.276419127359986E-003;
2.410500000000000E+009;1.834111958742142E-001;2.719529718160629E-002;-1.197490637423471E-004;-3.254055511206389E-003;
2.410666666666667E+009;1.824060231447220E-001;2.492733858525753E-002;-1.171290059573948E-004;-3.397718537598848E-003;
2.410833333333334E+009;1.818707883358002E-001;2.267044223845005E-002;-4.299613065086305E-004;-3.449236741289496E-003;
2.411000000000000E+009;1.809722334146500E-001;2.051706239581108E-002;-3.715208731591702E-004;-3.482581581920385E-003;
2.411166666666667E+009;1.802243292331696E-001;1.832049153745174E-002;-7.116943597793579E-004;-3.654994303360581E-003;
2.411333333333334E+009;1.796991229057312E-001;1.575176417827606E-002;-7.964603137224913E-004;-3.629070241004229E-003;
2.411500000000000E+009;1.793376207351685E-001;1.329822931438685E-002;-9.039046126417816E-004;-3.622343763709068E-003;
2.411666666666667E+009;1.791719496250153E-001;1.090592052787542E-002;-1.106189214624465E-003;-3.553693415597081E-003;
2.411833333333334E+009;1.787551343441010E-001;8.412850089371204E-003;-1.348172780126333E-003;-3.571200417354703E-003;
2.412000000000000E+009;1.789055913686752E-001;5.829684436321259E-003;-1.431721728295088E-003;-3.581262193620205E-003;
2.412166666666667E+009;1.789734214544296E-001;3.509337780997157E-003;-1.555918715894222E-003;-3.573944093659520E-003;
2.412333333333334E+009;1.791568696498871E-001;9.576441370882094E-004;-1.996639650315046E-003;-3.463571192696691E-003;
2.412500000000000E+009;1.796680241823196E-001;-1.552046625874937E-003;-1.945734373293817E-003;-3.532695816829801E-003;
2.412666666666667E+009;1.800389140844345E-001;-4.092341288924217E-003;-2.161524724215269E-003;-3.475404111668468E-003;
2.412833333333334E+009;1.808735430240631E-001;-6.637491285800934E-003;-2.253842307254672E-003;-3.377175424247980E-003;
2.413000000000000E+009;1.815914511680603E-001;-8.919580839574337E-003;-2.408464206382632E-003;-3.195987548679113E-003;
2.413166666666667E+009;1.824024021625519E-001;-1.117479708045721E-002;-2.622634638100863E-003;-3.224537475034595E-003;
2.413333333333334E+009;1.833853125572205E-001;-1.361302658915520E-002;-2.742841141298413E-003;-3.063957206904888E-003;
2.413500000000000E+009;1.843522191047669E-001;-1.592133939266205E-002;-2.796232234686613E-003;-2.957055345177651E-003;
2.413666666666667E+009;1.854832470417023E-001;-1.827694848179817E-002;-2.972532296553254E-003;-2.854231745004654E-003;
2.413833333333334E+009;1.864505261182785E-001;-2.017765492200851E-002;-3.005507634952664E-003;-2.598354360088706E-003;
2.414000000000000E+009;1.877448409795761E-001;-2.225819975137711E-002;-3.143531037494540E-003;-2.519047586247325E-003;
2.414166666666667E+009;1.889992654323578E-001;-2.401103638112545E-002;-3.220638493075967E-003;-2.488028258085251E-003;
2.414333333333334E+009;1.900267452001572E-001;-2.594914659857750E-002;-3.132203128188849E-003;-2.357685938477516E-003;
2.414500000000000E+009;1.914627999067307E-001;-2.754007279872894E-002;-3.310561645776033E-003;-2.327931812033057E-003;
2.414666666666667E+009;1.926299482584000E-001;-2.908471226692200E-002;-3.286459250375629E-003;-2.293529221788049E-003;
2.414833333333334E+009;1.938208639621735E-001;-3.044426441192627E-002;-3.305142279714346E-003;-2.201335737481713E-003;
2.415000000000000E+009;1.950562596321106E-001;-3.179394453763962E-002;-3.573181573301554E-003;-2.197304973378778E-003;
2.415166666666667E+009;1.963031142950058E-001;-3.287487849593163E-002;-3.632148494943976E-003;-2.062862506136298E-003;
2.415333333333334E+009;1.974299997091293E-001;-3.373543918132782E-002;-3.724468406289816E-003;-2.041961764916778E-003;
2.415500000000000E+009;1.985548287630081E-001;-3.450932353734970E-002;-4.022795241326094E-003;-1.783695071935654E-003;
2.415666666666667E+009;1.996094584465027E-001;-3.525946289300919E-002;-4.155265633016825E-003;-1.771303243003786E-003;
2.415833333333334E+009;2.004029303789139E-001;-3.593711555004120E-002;-4.335037432610989E-003;-1.492780167609453E-003;
2.416000000000000E+009;2.013036608695984E-001;-3.651201725006104E-002;-4.362060222774744E-003;-1.269241678528488E-003;
2.416166666666667E+009;2.021801322698593E-001;-3.706092759966850E-002;-4.440478049218655E-003;-1.032134983688593E-003;
2.416333333333334E+009;2.027613520622253E-001;-3.714624047279358E-002;-4.500313196331263E-003;-7.322306046262384E-004;
2.416500000000000E+009;2.032674998044968E-001;-3.741086274385452E-002;-4.417092539370060E-003;-5.567973130382597E-004;
2.416666666666667E+009;2.035795599222183E-001;-3.770506754517555E-002;-4.469591192901135E-003;-3.227387205697596E-004;
2.416833333333334E+009;2.037567943334580E-001;-3.768482804298401E-002;-4.319445695728064E-003;-7.726694457232952E-005;
2.417000000000000E+009;2.040946930646896E-001;-3.770803660154343E-002;-4.341262392699719E-003;2.785338438116014E-005;
2.417166666666667E+009;2.037887275218964E-001;-3.746034577488899E-002;-4.205268342047930E-003;3.594743029680103E-004;
2.417333333333334E+009;2.035817652940750E-001;-3.730075806379318E-002;-4.099575802683830E-003;4.041943757329136E-004;
2.417500000000000E+009;2.034952938556671E-001;-3.732834756374359E-002;-4.073578864336014E-003;4.166970029473305E-004;
2.417666666666667E+009;2.030051797628403E-001;-3.707231208682060E-002;-3.974480554461479E-003;5.377840134315193E-004;
2.417833333333334E+009;2.026008814573288E-001;-3.675323724746704E-002;-3.872469300404191E-003;6.118142628110945E-004;
2.418000000000000E+009;2.020334899425507E-001;-3.647556528449059E-002;-3.798929508775473E-003;4.894795129075646E-004;
2.418166666666667E+009;2.012291103601456E-001;-3.627436980605125E-002;-3.845062572509050E-003;7.165232673287392E-004;
2.418333333333334E+009;2.005044668912888E-001;-3.610303997993469E-002;-3.814904252067208E-003;8.149558561854065E-004;
2.418500000000000E+009;1.994615942239761E-001;-3.614485263824463E-002;-3.908423706889153E-003;7.009066757746041E-004;
2.418666666666667E+009;1.987057477235794E-001;-3.589781746268272E-002;-3.862160723656416E-003;9.186622337438166E-004;
2.418833333333334E+009;1.973897814750671E-001;-3.602844104170799E-002;-3.876467002555728E-003;1.148933661170304E-003;
2.419000000000000E+009;1.962065100669861E-001;-3.623107820749283E-002;-3.852300811558962E-003;1.166887581348419E-003;
2.419166666666667E+009;1.949483454227448E-001;-3.634857386350632E-002;-3.881726181134582E-003;1.275261864066124E-003;
2.419333333333334E+009;1.936562210321426E-001;-3.699526935815811E-002;-3.980788867920637E-003;1.385594368912280E-003;
2.419500000000000E+009;1.922264546155930E-001;-3.742593154311180E-002;-4.067042376846075E-003;1.632219646126032E-003;
2.419666666666667E+009;1.906053870916367E-001;-3.810589760541916E-002;-3.995309583842754E-003;1.879720482975245E-003;
2.419833333333334E+009;1.890676766633987E-001;-3.888807073235512E-002;-3.969923127442598E-003;2.136792987585068E-003;
2.420000000000000E+009;1.874765306711197E-001;-3.968080878257752E-002;-3.877062583342195E-003;2.281697466969490E-003;
2.420166666666667E+009;1.859382987022400E-001;-4.067844152450562E-002;-3.783093532547355E-003;2.531665610149503E-003;
2.420333333333334E+009;1.842140555381775E-001;-4.189873859286308E-002;-3.664459800347686E-003;2.752369269728661E-003;
2.420500000000000E+009;1.826783418655396E-001;-4.326134547591209E-002;-3.570484230294824E-003;2.935116179287434E-003;
2.420666666666667E+009;1.809156835079193E-001;-4.427208378911018E-002;-3.259286051616073E-003;3.071698127314448E-003;
2.420833333333334E+009;1.793313175439835E-001;-4.595076292753220E-002;-3.129305783659220E-003;3.233552677556872E-003;
2.421000000000000E+009;1.778400987386704E-001;-4.754394665360451E-002;-2.722380915656686E-003;3.488953225314617E-003;
2.421166666666667E+009;1.764288842678070E-001;-4.921883717179298E-002;-2.687990432605147E-003;3.473345655947924E-003;
2.421333333333334E+009;1.745624393224716E-001;-5.082153901457787E-002;-2.243273193016648E-003;3.509975736960769E-003;
2.421500000000000E+009;1.733664125204086E-001;-5.279228463768959E-002;-1.955733867362142E-003;3.608555300161243E-003;
2.421666666666667E+009;1.721132844686508E-001;-5.460686981678009E-002;-1.700768363662064E-003;3.360926872119308E-003;
2.421833333333334E+009;1.707694530487061E-001;-5.655823647975922E-002;-1.526119303889573E-003;3.301759250462055E-003;
2.422000000000000E+009;1.697636395692825E-001;-5.843435972929001E-002;-1.355395652353764E-003;3.493451280519366E-003;
2.422166666666667E+009;1.687606126070023E-001;-6.057520210742950E-002;-1.207632943987846E-003;3.287439001724124E-003;
2.422333333333334E+009;1.678194254636765E-001;-6.272604316473007E-002;-1.191961811855435E-003;3.194723045453429E-003;
2.422500000000000E+009;1.671480089426041E-001;-6.448675692081451E-002;-1.112704747356474E-003;3.017557319253683E-003;
2.422666666666667E+009;1.661478579044342E-001;-6.656461954116821E-002;-1.137010171078146E-003;2.896769205108285E-003;
2.422833333333334E+009;1.659537404775620E-001;-6.868094950914383E-002;-9.514936245977879E-004;2.875801874324679E-003;
2.423000000000000E+009;1.654135733842850E-001;-7.066950947046280E-002;-7.259233971126378E-004;2.746516373008490E-003;
2.423166666666667E+009;1.651679426431656E-001;-7.264924794435501E-002;-9.560423204675317E-004;2.757061738520861E-003;
2.423333333333334E+009;1.649283170700073E-001;-7.465256750583649E-002;-8.514145156368613E-004;2.607372356578708E-003;
2.423500000000000E+009;1.648701727390289E-001;-7.638982683420181E-002;-9.286592830903828E-004;2.602141583338380E-003;
2.423666666666667E+009;1.650058329105377E-001;-7.831455767154694E-002;-8.894254569895566E-004;2.391311805695295E-003;
2.423833333333334E+009;1.649909615516663E-001;-8.014013618230820E-002;-9.879274293780327E-004;2.627708949148655E-003;
2.424000000000000E+009;1.650854796171188E-001;-8.197653293609619E-002;-9.820912964642048E-004;2.651455579325557E-003;
2.424166666666667E+009;1.653294414281845E-001;-8.349900692701340E-002;-9.758717496879399E-004;2.523707924410701E-003;
2.424333333333334E+009;1.657221168279648E-001;-8.507221937179565E-002;-1.020840019918978E-003;2.756407717242837E-003;
2.424500000000000E+009;1.660854071378708E-001;-8.691135048866272E-002;-9.037136333063245E-004;2.732727676630020E-003;
2.424666666666667E+009;1.663720905780792E-001;-8.816580474376679E-002;-8.674910641275346E-004;2.692194655537605E-003;
2.424833333333334E+009;1.670481562614441E-001;-8.946985751390457E-002;-1.004466437734664E-003;2.765502547845244E-003;
2.425000000000000E+009;1.675131618976593E-001;-9.079061448574066E-002;-8.516322122886777E-004;2.988986205309629E-003;
2.425166666666667E+009;1.680031716823578E-001;-9.176313132047653E-002;-9.890552610158920E-004;2.946416148915887E-003;
2.425333333333334E+009;1.684421747922897E-001;-9.283635765314102E-002;-9.221732034347951E-004;3.045439952984452E-003;
2.425500000000000E+009;1.690940558910370E-001;-9.378861635923386E-002;-6.299728993326426E-004;3.096585394814611E-003;
2.425666666666667E+009;1.694752126932144E-001;-9.446810185909271E-002;-7.219653343781829E-004;3.273243317380548E-003;
2.425833333333334E+009;1.700880080461502E-001;-9.537204355001450E-002;-5.489101749844849E-004;3.123950446024537E-003;
2.426000000000000E+009;1.706507802009583E-001;-9.563370048999786E-002;-6.745223072357476E-004;3.182921325787902E-003;
2.426166666666667E+009;1.711430251598358E-001;-9.620212763547897E-002;-5.014964262954891E-004;3.339509712532163E-003;
2.426333333333334E+009;1.713449805974960E-001;-9.686861187219620E-002;-3.660910588223487E-004;3.404530696570873E-003;
2.426500000000000E+009;1.720357686281204E-001;-9.712198376655579E-002;-1.477874175179750E-004;3.485799301415682E-003;
2.426666666666667E+009;1.724014580249786E-001;-9.745205193758011E-002;-2.157944109058008E-004;3.426024224609137E-003;
2.426833333333334E+009;1.727690696716309E-001;-9.772260487079620E-002;-2.895625584642403E-005;3.559188218787313E-003;
2.427000000000000E+009;1.729107946157455E-001;-9.803685545921326E-002;-1.239976518263575E-005;3.470738418400288E-003;
2.427166666666667E+009;1.730725169181824E-001;-9.815141558647156E-002;6.225262768566608E-005;3.568712156265974E-003;
2.427333333333334E+009;1.730743944644928E-001;-9.838648885488510E-002;1.847242674557492E-004;3.607481252402067E-003;
2.427500000000000E+009;1.730687767267227E-001;-9.862789511680603E-002;4.055874596815556E-004;3.593440167605877E-003;
2.427666666666667E+009;1.728192120790482E-001;-9.880391508340836E-002;2.942103310488164E-004;3.608715254813433E-003;
