# Version 1.00
#
freq[Hz];re:Trc1_S11;im:Trc1_S11;re:Trc2_S21;im:Trc2_S21;
2.400000000000000E+009;1.584215164184570E-001;6.247099488973618E-002;1.159285195171833E-003;-3.025151556357741E-003;
2.400166666666667E+009;1.582735627889633E-001;6.095957010984421E-002;1.328736543655396E-003;-3.119354601949453E-003;
2.400333333333334E+009;1.582293212413788E-001;5.911712720990181E-002;1.155598904006183E-003;-3.149579977616668E-003;
2.400500000000000E+009;1.580556035041809E-001;5.710665509104729E-002;1.176915480755270E-003;-3.365139709785581E-003;
2.400666666666667E+009;1.579280495643616E-001;5.510166659951210E-002;1.179906772449613E-003;-3.362378338351846E-003;
2.400833333333334E+009;1.580496728420258E-001;5.321303755044937E-002;1.200717990286648E-003;-3.659209469333291E-003;
2.401000000000000E+009;1.583075225353241E-001;5.109761655330658E-002;1.035202061757445E-003;-3.606147598475218E-003;
2.401166666666667E+009;1.582433134317398E-001;4.891856759786606E-002;9.143649367615581E-004;-3.803413826972246E-003;
2.401333333333334E+009;1.583375185728073E-001;4.698992148041725E-002;8.708436507731676E-004;-3.836386371403933E-003;
2.401500000000000E+009;1.587386727333069E-001;4.472136497497559E-002;8.777077891863883E-004;-4.132601432502270E-003;
2.401666666666667E+009;1.588936597108841E-001;4.288966208696365E-002;6.417480180971324E-004;-3.953495528548956E-003;
2.401833333333334E+009;1.592771112918854E-001;4.060351103544235E-002;5.013339687138796E-004;-4.288869909942150E-003;
2.402000000000000E+009;1.596344858407974E-001;3.862867876887322E-002;3.366799501236528E-004;-4.312592558562756E-003;
2.402166666666667E+009;1.603839695453644E-001;3.654849529266357E-002;1.078776404028758E-004;-4.422581288963556E-003;
2.402333333333334E+009;1.606160700321198E-001;3.462680056691170E-002;-6.664571992587298E-005;-4.541191738098860E-003;
2.402500000000000E+009;1.615146696567535E-001;3.292768448591232E-002;-2.820428344421089E-004;-4.684066865593195E-003;
2.402666666666667E+009;1.621119678020477E-001;3.119081258773804E-002;-3.821816353593022E-004;-4.817164968699217E-003;
2.402833333333334E+009;1.628906875848770E-001;2.949326485395432E-002;-6.205015815794468E-004;-4.786052741110325E-003;
2.403000000000000E+009;1.637148708105087E-001;2.790736407041550E-002;-9.201816865243018E-004;-4.723158199340105E-003;
2.403166666666667E+009;1.644386500120163E-001;2.621218748390675E-002;-1.088340417481959E-003;-4.813323728740215E-003;
2.403333333333334E+009;1.655039936304092E-001;2.496152743697166E-002;-1.309935119934380E-003;-4.791258368641138E-003;
2.403500000000000E+009;1.663246154785156E-001;2.338016964495182E-002;-1.614937442354858E-003;-4.799550399184227E-003;
2.403666666666667E+009;1.671421378850937E-001;2.193654887378216E-002;-1.983301714062691E-003;-4.748769570142031E-003;
2.403833333333334E+009;1.682701557874680E-001;2.051130123436451E-002;-2.111721085384488E-003;-4.548930563032627E-003;
2.404000000000000E+009;1.692027300596237E-001;1.934701018035412E-002;-2.242151182144880E-003;-4.371994640678167E-003;
2.404166666666667E+009;1.701099872589111E-001;1.826840080320835E-002;-2.595904981717467E-003;-4.391446709632874E-003;
2.404333333333334E+009;1.710629165172577E-001;1.728812046349049E-002;-2.821773290634155E-003;-4.275206476449966E-003;
2.404500000000000E+009;1.720502078533173E-001;1.627562940120697E-002;-2.928761765360832E-003;-4.242360591888428E-003;
2.404666666666667E+009;1.730971783399582E-001;1.546710170805454E-002;-3.223726991564035E-003;-4.163415636867285E-003;
2.404833333333334E+009;1.739541590213776E-001;1.466250233352184E-002;-3.217627294361591E-003;-4.060278646647930E-003;
2.405000000000000E+009;1.748591363430023E-001;1.394577603787184E-002;-3.502632956951857E-003;-4.000373184680939E-003;
2.405166666666667E+009;1.756551861763001E-001;1.325322221964598E-002;-3.666599513962865E-003;-3.653591731563211E-003;
2.405333333333334E+009;1.764537394046783E-001;1.248465664684773E-002;-3.997255582362413E-003;-3.513261908665299E-003;
2.405500000000000E+009;1.773927211761475E-001;1.230690907686949E-002;-3.940303809940815E-003;-3.242680337280035E-003;
2.405666666666667E+009;1.778654456138611E-001;1.189493481069803E-002;-4.020689986646175E-003;-3.024417674168944E-003;
2.405833333333334E+009;1.784567832946777E-001;1.150727737694979E-002;-4.251862876117230E-003;-2.942976541817188E-003;
2.406000000000000E+009;1.790273487567902E-001;1.107152830809355E-002;-4.268802702426910E-003;-2.693572780117393E-003;
2.406166666666667E+009;1.794521063566208E-001;1.082023978233337E-002;-4.426070023328066E-003;-2.584045752882958E-003;
2.406333333333334E+009;1.799616515636444E-001;1.048222463577986E-002;-4.465322475880384E-003;-2.427423605695367E-003;
2.406500000000000E+009;1.802951246500015E-001;1.011117827147245E-002;-4.560742992907763E-003;-2.383302198722959E-003;
2.406666666666667E+009;1.803373545408249E-001;9.893169626593590E-003;-4.484278615564108E-003;-2.240003552287817E-003;
2.406833333333334E+009;1.807124465703964E-001;9.528609924018383E-003;-4.692684859037399E-003;-1.966146053746343E-003;
2.407000000000000E+009;1.808239221572876E-001;9.173184633255005E-003;-4.650065209716559E-003;-1.701205270364881E-003;
2.407166666666667E+009;1.808149367570877E-001;8.956037461757660E-003;-4.668642301112413E-003;-1.497573335655034E-003;
2.407333333333334E+009;1.807452589273453E-001;8.425828069448471E-003;-4.633383825421333E-003;-1.437925966456533E-003;
2.407500000000000E+009;1.805149465799332E-001;8.118262514472008E-003;-4.721587058156729E-003;-1.142652821727097E-003;
2.407666666666667E+009;1.802453398704529E-001;7.746799383312464E-003;-4.637550096958876E-003;-9.442330338060856E-004;
2.407833333333334E+009;1.798245608806610E-001;7.156524341553450E-003;-4.834264516830444E-003;-9.504407644271851E-004;
2.408000000000000E+009;1.795567572116852E-001;6.546284537762404E-003;-4.693316761404276E-003;-5.570172797888517E-004;
2.408166666666667E+009;1.790593713521957E-001;5.894735921174288E-003;-4.856884945183992E-003;-5.709045217372477E-004;
2.408333333333334E+009;1.788485348224640E-001;5.245428998023272E-003;-4.759253002703190E-003;-3.505113418214023E-004;
2.408500000000000E+009;1.781913489103317E-001;4.462567158043385E-003;-4.737661685794592E-003;-2.532445068936795E-004;
2.408666666666667E+009;1.774695217609406E-001;3.459111554548144E-003;-4.646743647754192E-003;1.169523311546072E-004;
2.408833333333334E+009;1.768121421337128E-001;2.699037082493305E-003;-4.487047437578440E-003;1.748443464748561E-004;
2.409000000000000E+009;1.762281209230423E-001;1.670385128818452E-003;-4.513379652053118E-003;1.455773599445820E-004;
2.409166666666667E+009;1.754454523324966E-001;6.093142437748611E-004;-4.612109623849392E-003;3.508304362185299E-004;
2.409333333333334E+009;1.749947071075440E-001;-6.697069038636982E-004;-4.441588651388884E-003;4.376069118734449E-004;
2.409500000000000E+009;1.740542799234390E-001;-1.985962036997080E-003;-4.406813532114029E-003;5.148074706085026E-004;
2.409666666666667E+009;1.735069453716278E-001;-3.237403230741620E-003;-4.485922399908304E-003;7.360439049080014E-004;
2.409833333333334E+009;1.726526916027069E-001;-4.610724281519651E-003;-4.363581538200378E-003;7.437344174832106E-004;
2.410000000000000E+009;1.721210330724716E-001;-6.201667711138725E-003;-4.340667277574539E-003;7.267327164299786E-004;
2.410166666666667E+009;1.715167164802551E-001;-7.681054528802633E-003;-4.156319424510002E-003;9.256768389604986E-004;
2.410333333333334E+009;1.708529889583588E-001;-9.361929260194302E-003;-4.259691108018160E-003;9.998717578127980E-004;
2.410500000000000E+009;1.702997237443924E-001;-1.107990182936192E-002;-4.210983868688345E-003;9.707206045277417E-004;
2.410666666666667E+009;1.698614209890366E-001;-1.304001361131668E-002;-4.154417198151350E-003;1.203121733851731E-003;
2.410833333333334E+009;1.693409681320190E-001;-1.475614681839943E-002;-4.079497884958983E-003;1.281193108297885E-003;
2.411000000000000E+009;1.689040660858154E-001;-1.637343317270279E-002;-4.163977690041065E-003;1.352313789539039E-003;
2.411166666666667E+009;1.687011867761612E-001;-1.844045706093311E-002;-4.071938805282116E-003;1.451017800718546E-003;
2.411333333333334E+009;1.683232337236404E-001;-2.030173316597939E-002;-4.030161071568728E-003;1.591641688719392E-003;
2.411500000000000E+009;1.680598855018616E-001;-2.218510210514069E-002;-4.020313266664743E-003;1.571065862663090E-003;
2.411666666666667E+009;1.679253727197647E-001;-2.410724014043808E-002;-4.032998811453581E-003;1.802793820388615E-003;
2.411833333333334E+009;1.680833101272583E-001;-2.601941674947739E-002;-4.004109650850296E-003;2.128028776496649E-003;
2.412000000000000E+009;1.681338101625443E-001;-2.802264504134655E-002;-4.115488380193710E-003;2.082743681967259E-003;
2.412166666666667E+009;1.681491285562515E-001;-3.000597655773163E-002;-3.937675617635250E-003;2.153087640181184E-003;
2.412333333333334E+009;1.685455441474915E-001;-3.193739429116249E-002;-3.881246550008655E-003;2.217134227976203E-003;
2.412500000000000E+009;1.686377674341202E-001;-3.382059559226036E-002;-3.994817845523357E-003;2.538348315283656E-003;
2.412666666666667E+009;1.688367724418640E-001;-3.581108897924423E-002;-3.968351986259222E-003;2.542947186157107E-003;
2.412833333333334E+009;1.692828536033630E-001;-3.768070787191391E-002;-4.043535329401493E-003;2.860139589756727E-003;
2.413000000000000E+009;1.696502417325974E-001;-3.941227495670319E-002;-3.867014078423381E-003;2.787291305139661E-003;
2.413166666666667E+009;1.701075881719589E-001;-4.111440852284432E-002;-3.730917116627097E-003;3.062226809561253E-003;
2.413333333333334E+009;1.705685257911682E-001;-4.296192526817322E-002;-3.745602210983634E-003;3.275782801210880E-003;
2.413500000000000E+009;1.709781140089035E-001;-4.466852545738220E-002;-3.514293348416686E-003;3.551095956936479E-003;
2.413666666666667E+009;1.717552393674851E-001;-4.625103995203972E-002;-3.454929683357477E-003;3.575106617063284E-003;
2.413833333333334E+009;1.722422242164612E-001;-4.763175174593926E-002;-3.180894302204251E-003;3.813605057075620E-003;
2.414000000000000E+009;1.726580709218979E-001;-4.918146133422852E-002;-3.172178287059069E-003;3.840416437014937E-003;
2.414166666666667E+009;1.733548939228058E-001;-5.046959593892098E-002;-2.952069276943803E-003;3.991906531155109E-003;
2.414333333333334E+009;1.738231331110001E-001;-5.171045288443565E-002;-2.763737924396992E-003;3.926433157175779E-003;
2.414500000000000E+009;1.746836304664612E-001;-5.278357118368149E-002;-2.690037013962865E-003;4.118760116398335E-003;
2.414666666666667E+009;1.750122904777527E-001;-5.396889895200729E-002;-2.411575522273779E-003;4.125864710658789E-003;
2.414833333333334E+009;1.753879487514496E-001;-5.487384274601936E-002;-2.231411868706346E-003;4.275529645383358E-003;
2.415000000000000E+009;1.759415864944458E-001;-5.568344518542290E-002;-2.127612940967083E-003;4.376608878374100E-003;
2.415166666666667E+009;1.763427704572678E-001;-5.649869143962860E-002;-1.873971545137465E-003;4.400894511491060E-003;
2.415333333333334E+009;1.768806874752045E-001;-5.740933120250702E-002;-1.746814465150237E-003;4.426620900630951E-003;
2.415500000000000E+009;1.771049648523331E-001;-5.793596059083939E-002;-1.417369465343654E-003;4.356780555099249E-003;
2.415666666666667E+009;1.773756742477417E-001;-5.843848362565041E-002;-1.487419242039323E-003;4.569731652736664E-003;
2.415833333333334E+009;1.776071935892105E-001;-5.897178500890732E-002;-1.331787905655801E-003;4.598450381308794E-003;
2.416000000000000E+009;1.776744574308395E-001;-5.937819555401802E-002;-1.110608223825693E-003;4.570914898067713E-003;
2.416166666666667E+009;1.778687387704849E-001;-5.982842668890953E-002;-9.780200198292732E-004;4.605537746101618E-003;
2.416333333333334E+009;1.777264922857285E-001;-6.019613146781921E-002;-8.876937208697200E-004;4.610130097717047E-003;
2.416500000000000E+009;1.776117086410523E-001;-6.038201972842217E-002;-6.904090405441821E-004;4.515594337135553E-003;
2.416666666666667E+009;1.773705631494522E-001;-6.069671735167503E-002;-4.435618175193667E-004;4.528160672634840E-003;
2.416833333333334E+009;1.772740781307221E-001;-6.107791885733604E-002;-3.909726801794022E-004;4.554530605673790E-003;
2.417000000000000E+009;1.767461597919464E-001;-6.129973754286766E-002;-4.116793861612678E-004;4.481602925807238E-003;
2.417166666666667E+009;1.763301342725754E-001;-6.129229441285133E-002;-1.015689122141339E-005;4.427465610206127E-003;
2.417333333333334E+009;1.757659167051315E-001;-6.154306977987289E-002;-4.916100806440227E-005;4.398638382554054E-003;
2.417500000000000E+009;1.752189844846726E-001;-6.189597770571709E-002;1.348897785646841E-004;4.441548604518175E-003;
2.417666666666667E+009;1.746262609958649E-001;-6.184661760926247E-002;1.426366216037422E-004;4.372671712189913E-003;
2.417833333333334E+009;1.737540215253830E-001;-6.223173066973686E-002;3.169008996337652E-004;4.375246353447437E-003;
2.418000000000000E+009;1.728313863277435E-001;-6.267346441745758E-002;3.223230014555156E-004;4.445861093699932E-003;
2.418166666666667E+009;1.718326807022095E-001;-6.265697628259659E-002;6.199018098413944E-004;4.382253624498844E-003;
2.418333333333334E+009;1.711610406637192E-001;-6.316717714071274E-002;6.894406396895647E-004;4.423895385116339E-003;
2.418500000000000E+009;1.700393259525299E-001;-6.368051469326019E-002;7.050959393382072E-004;4.367631394416094E-003;
2.418666666666667E+009;1.689981669187546E-001;-6.416130810976028E-002;9.492042590864003E-004;4.228156525641680E-003;
2.418833333333334E+009;1.676552891731262E-001;-6.466242671012878E-002;1.099814078770578E-003;4.186675883829594E-003;
2.419000000000000E+009;1.665621399879456E-001;-6.526666879653931E-002;1.076765707693994E-003;4.251109436154366E-003;
2.419166666666667E+009;1.654073297977448E-001;-6.591938436031342E-002;1.085050054825842E-003;4.166801925748587E-003;
2.419333333333334E+009;1.640454977750778E-001;-6.636200100183487E-002;1.332896179519594E-003;4.159285686910152E-003;
2.419500000000000E+009;1.629323959350586E-001;-6.750750541687012E-002;1.275844406336546E-003;4.066408611834049E-003;
2.419666666666667E+009;1.617365479469299E-001;-6.831163167953491E-002;1.495604054071009E-003;3.899875562638044E-003;
2.419833333333334E+009;1.605775952339172E-001;-6.932947784662247E-002;1.631356542930007E-003;3.860172582790256E-003;
2.420000000000000E+009;1.595022082328796E-001;-7.037463039159775E-002;1.762960804626346E-003;3.941897302865982E-003;
2.420166666666667E+009;1.583456546068192E-001;-7.141222059726715E-002;1.770184026099742E-003;3.760401625186205E-003;
2.420333333333334E+009;1.571935862302780E-001;-7.251001894474030E-002;1.797764911316335E-003;3.824925282970071E-003;
2.420500000000000E+009;1.562360972166061E-001;-7.384065538644791E-002;1.959979068487883E-003;3.721503773704171E-003;
2.420666666666667E+009;1.551441252231598E-001;-7.498309761285782E-002;1.888760947622359E-003;3.727659117430449E-003;
2.420833333333334E+009;1.542115807533264E-001;-7.654365897178650E-002;2.124340739101172E-003;3.444797592237592E-003;
2.421000000000000E+009;1.533315330743790E-001;-7.803577929735184E-002;2.289893105626106E-003;3.691526129841805E-003;
2.421166666666667E+009;1.527044028043747E-001;-7.931237667798996E-002;2.247632248327136E-003;3.483204171061516E-003;
2.421333333333334E+009;1.519785672426224E-001;-8.114615827798843E-002;2.353555290028453E-003;3.395050996914506E-003;
2.421500000000000E+009;1.513154208660126E-001;-8.260237425565720E-002;2.407141961157322E-003;3.438118845224381E-003;
2.421666666666667E+009;1.507576107978821E-001;-8.418784290552139E-002;2.650436246767640E-003;3.369058016687632E-003;
2.421833333333334E+009;1.503671556711197E-001;-8.586052805185318E-002;2.732411026954651E-003;3.256071591749787E-003;
2.422000000000000E+009;1.500055491924286E-001;-8.768077939748764E-002;2.958163386210799E-003;3.195164725184441E-003;
2.422166666666667E+009;1.495991647243500E-001;-8.948586881160736E-002;2.731878776103258E-003;3.101703943684697E-003;
2.422333333333334E+009;1.496859788894653E-001;-9.100263565778732E-002;2.858199644833803E-003;3.028369508683682E-003;
2.422500000000000E+009;1.492417603731155E-001;-9.260452538728714E-002;2.859488362446427E-003;3.011627355590463E-003;
2.422666666666667E+009;1.492328643798828E-001;-9.454127401113510E-002;3.030812134966254E-003;2.972674323245883E-003;
2.422833333333334E+009;1.493894010782242E-001;-9.612283110618591E-002;3.331338753923774E-003;2.818289911374450E-003;
2.423000000000000E+009;1.494322419166565E-001;-9.779673814773560E-002;3.349554259330034E-003;2.807931043207645E-003;
2.423166666666667E+009;1.497084796428680E-001;-9.953642636537552E-002;3.345497651025653E-003;2.646211301907897E-003;
2.423333333333334E+009;1.498896181583405E-001;-1.009144186973572E-001;3.427180461585522E-003;2.606248483061791E-003;
2.423500000000000E+009;1.502347886562347E-001;-1.025091409683228E-001;3.425339236855507E-003;2.406855579465628E-003;
2.423666666666667E+009;1.504017114639282E-001;-1.041376143693924E-001;3.597677685320377E-003;2.316324040293694E-003;
2.423833333333334E+009;1.512219309806824E-001;-1.055637151002884E-001;3.698250278830528E-003;2.283000852912664E-003;
2.424000000000000E+009;1.514638364315033E-001;-1.067666336894035E-001;3.684444585815072E-003;2.184508135542274E-003;
2.424166666666667E+009;1.517636328935623E-001;-1.081444546580315E-001;3.777312813326716E-003;2.049322007223964E-003;
2.424333333333334E+009;1.524419784545898E-001;-1.093010976910591E-001;3.723164321854711E-003;1.933333929628134E-003;
2.424500000000000E+009;1.529815196990967E-001;-1.105307415127754E-001;3.940385300666094E-003;1.854550675489008E-003;
2.424666666666667E+009;1.534907519817352E-001;-1.114315614104271E-001;4.037381615489721E-003;1.624464406631887E-003;
2.424833333333334E+009;1.537949591875076E-001;-1.126274242997170E-001;4.200329538434744E-003;1.558048068545759E-003;
2.425000000000000E+009;1.543554961681366E-001;-1.136156767606735E-001;4.176332149654627E-003;1.523962593637407E-003;
2.425166666666667E+009;1.546141952276230E-001;-1.142999678850174E-001;4.255868028849363E-003;1.310457824729383E-003;
2.425333333333334E+009;1.551463901996613E-001;-1.149407029151917E-001;4.296024795621634E-003;1.178300241008401E-003;
2.425500000000000E+009;1.555658876895905E-001;-1.157177910208702E-001;4.253980237990618E-003;1.209370675496757E-003;
2.425666666666667E+009;1.557099670171738E-001;-1.164022609591484E-001;4.367825109511614E-003;1.051153289154172E-003;
2.425833333333334E+009;1.560145765542984E-001;-1.168156713247299E-001;4.269889555871487E-003;7.221816340461373E-004;
2.426000000000000E+009;1.562651693820953E-001;-1.173943802714348E-001;4.338508471846581E-003;6.095034186728299E-004;
2.426166666666667E+009;1.565243154764175E-001;-1.178218275308609E-001;4.251070320606232E-003;5.509508191607893E-004;
2.426333333333334E+009;1.564602106809616E-001;-1.180426329374313E-001;4.427646286785603E-003;4.905587993562222E-004;
2.426500000000000E+009;1.565283238887787E-001;-1.182628497481346E-001;4.395430907607079E-003;2.139994758181274E-004;
2.426666666666667E+009;1.565997749567032E-001;-1.183862909674645E-001;4.403707571327686E-003;1.152525364886969E-004;
2.426833333333334E+009;1.562833636999130E-001;-1.187093928456307E-001;4.426280502229929E-003;-5.960413545835763E-005;
2.427000000000000E+009;1.560546755790710E-001;-1.189886257052422E-001;4.450350999832153E-003;-1.905478566186503E-004;
2.427166666666667E+009;1.556457132101059E-001;-1.189088225364685E-001;4.309157375246286E-003;-2.717981114983559E-004;
2.427333333333334E+009;1.551962047815323E-001;-1.190250217914581E-001;4.267827607691288E-003;-3.184700908605009E-004;
2.427500000000000E+009;1.546954810619354E-001;-1.192672327160835E-001;4.289937205612660E-003;-5.255196592770517E-004;
2.427666666666667E+009;1.539860665798187E-001;-1.194017902016640E-001;4.309101495891810E-003;-7.097410853020847E-004;
2.427833333333334E+009;1.531333178281784E-001;-1.194580420851708E-001;4.387422464787960E-003;-6.942136096768081E-004;
