# Version 1.00
#
freq[Hz];re:Trc1_S11;im:Trc1_S11;re:Trc2_S21;im:Trc2_S21;
2.400000000000000E+009;1.582862585783005E-001;6.189375370740891E-002;-2.340682083740830E-003;-1.036916626617312E-003;
2.400166666666667E+009;1.581412255764008E-001;6.045360118150711E-002;-2.262241905555129E-003;-7.735319086350501E-004;
2.400333333333334E+009;1.580087840557098E-001;5.855459347367287E-002;-2.471114741638303E-003;-7.958674686960876E-004;
2.400500000000000E+009;1.579750478267670E-001;5.660867691040039E-002;-2.427412662655115E-003;-8.997515542432666E-004;
2.400666666666667E+009;1.579551398754120E-001;5.468459799885750E-002;-2.403142629191279E-003;-9.593184222467244E-004;
2.400833333333334E+009;1.582194119691849E-001;5.275523662567139E-002;-2.549261320382357E-003;-7.546400302089751E-004;
2.401000000000000E+009;1.582075953483582E-001;5.078125372529030E-002;-2.539915964007378E-003;-7.831844268366695E-004;
2.401166666666667E+009;1.585072875022888E-001;4.874829202890396E-002;-2.543044975027442E-003;-6.316487560980022E-004;
2.401333333333334E+009;1.585690826177597E-001;4.659564420580864E-002;-2.513268962502480E-003;-6.112298578955233E-004;
2.401500000000000E+009;1.590154170989990E-001;4.462080821394920E-002;-2.715246984735131E-003;-6.716621574014425E-004;
2.401666666666667E+009;1.593820452690125E-001;4.263082146644592E-002;-2.741530304774642E-003;-7.137859356589615E-004;
2.401833333333334E+009;1.597607433795929E-001;4.061040282249451E-002;-2.762668300420046E-003;-4.744096659123898E-004;
2.402000000000000E+009;1.599439382553101E-001;3.868260979652405E-002;-2.783090574666858E-003;-4.482254444155842E-004;
2.402166666666667E+009;1.606557667255402E-001;3.678257390856743E-002;-2.939745783805847E-003;-2.218378358520567E-004;
2.402333333333334E+009;1.611226350069046E-001;3.474514558911324E-002;-3.032142762094736E-003;-2.692728594411165E-004;
2.402500000000000E+009;1.619025468826294E-001;3.290779143571854E-002;-3.117188578471541E-003;-1.472786971135065E-004;
2.402666666666667E+009;1.627029031515122E-001;3.149694949388504E-002;-3.021608805283904E-003;-1.323924661846831E-004;
2.402833333333334E+009;1.634154915809631E-001;2.972363308072090E-002;-3.006782848387957E-003;2.082735736621544E-004;
2.403000000000000E+009;1.640487909317017E-001;2.817151509225369E-002;-3.239350160583854E-003;2.508474863134325E-004;
2.403166666666667E+009;1.651964783668518E-001;2.660649642348290E-002;-3.292163135483861E-003;2.489809994585812E-004;
2.403333333333334E+009;1.660219579935074E-001;2.506211213767529E-002;-3.238290315493941E-003;3.549808170646429E-004;
2.403500000000000E+009;1.666836887598038E-001;2.370063215494156E-002;-3.360907780006528E-003;4.857183375861496E-004;
2.403666666666667E+009;1.678454130887985E-001;2.220172248780727E-002;-3.285312792286277E-003;7.371692336164415E-004;
2.403833333333334E+009;1.687591373920441E-001;2.093055844306946E-002;-3.398863133043051E-003;7.413616403937340E-004;
2.404000000000000E+009;1.696942150592804E-001;2.002570219337940E-002;-3.247572341933847E-003;1.035509863868356E-003;
2.404166666666667E+009;1.705174446105957E-001;1.882907003164291E-002;-3.356513800099492E-003;1.114732120186091E-003;
2.404333333333334E+009;1.716236174106598E-001;1.769213378429413E-002;-3.537275362759829E-003;1.309688086621463E-003;
2.404500000000000E+009;1.723882108926773E-001;1.665925979614258E-002;-3.188906703144312E-003;1.448110328055918E-003;
2.404666666666667E+009;1.733444929122925E-001;1.591547206044197E-002;-3.458716673776507E-003;1.639570225961506E-003;
2.404833333333334E+009;1.742016524076462E-001;1.520042866468430E-002;-3.316228743642569E-003;1.732604461722076E-003;
2.405000000000000E+009;1.749487370252609E-001;1.423871424049139E-002;-3.395044710487127E-003;1.869449159130454E-003;
2.405166666666667E+009;1.758692860603333E-001;1.369585748761892E-002;-3.218759084120393E-003;2.093944465741515E-003;
2.405333333333334E+009;1.766553074121475E-001;1.280792150646448E-002;-3.058986039832234E-003;2.186689060181379E-003;
2.405500000000000E+009;1.773658990859985E-001;1.254187989979982E-002;-2.941502491012216E-003;2.392374910414219E-003;
2.405666666666667E+009;1.778848320245743E-001;1.212046947330236E-002;-2.955259522423148E-003;2.544094808399677E-003;
2.405833333333334E+009;1.782666742801666E-001;1.172089017927647E-002;-2.853019163012505E-003;2.735515125095844E-003;
2.406000000000000E+009;1.790084838867188E-001;1.111931074410677E-002;-2.512073842808604E-003;2.840086119249463E-003;
2.406166666666667E+009;1.793322265148163E-001;1.083424594253302E-002;-2.524727024137974E-003;3.008145838975906E-003;
2.406333333333334E+009;1.798615455627441E-001;1.049594022333622E-002;-2.319939201697707E-003;3.233737545087934E-003;
2.406500000000000E+009;1.800089627504349E-001;1.001890655606985E-002;-2.318326616659761E-003;3.272598143666983E-003;
2.406666666666667E+009;1.801735609769821E-001;9.818798862397671E-003;-2.020129701122642E-003;3.248721128329635E-003;
2.406833333333334E+009;1.803750842809677E-001;9.389253333210945E-003;-1.737315207719803E-003;3.415892366319895E-003;
2.407000000000000E+009;1.804812103509903E-001;8.996545337140560E-003;-1.677836640737951E-003;3.490211442112923E-003;
2.407166666666667E+009;1.805326044559479E-001;8.628726936876774E-003;-1.427350915037096E-003;3.548481035977602E-003;
2.407333333333334E+009;1.803966015577316E-001;8.098335936665535E-003;-1.392658683471382E-003;3.497750964015722E-003;
2.407500000000000E+009;1.802176237106323E-001;7.826709188520908E-003;-1.216298202052712E-003;3.544106613844633E-003;
2.407666666666667E+009;1.800067275762558E-001;7.355277892202139E-003;-8.849439909681678E-004;3.620943753048778E-003;
2.407833333333334E+009;1.796101480722427E-001;6.625168956816196E-003;-6.973269046284258E-004;3.381432266905904E-003;
2.408000000000000E+009;1.791715919971466E-001;6.031922530382872E-003;-6.397599354386330E-004;3.527815686538816E-003;
2.408166666666667E+009;1.788685917854309E-001;5.453572608530521E-003;-4.341609019320458E-004;3.614105982705951E-003;
2.408333333333334E+009;1.784502416849136E-001;4.791131243109703E-003;-1.513972820248455E-004;3.541280981153250E-003;
2.408500000000000E+009;1.778907626867294E-001;3.781662788242102E-003;-8.616536797489971E-005;3.287184284999967E-003;
2.408666666666667E+009;1.771630197763443E-001;2.777435118332505E-003;3.972536069341004E-005;3.505128435790539E-003;
2.408833333333334E+009;1.765689849853516E-001;1.898709335364401E-003;1.831921981647611E-004;3.308464307337999E-003;
2.409000000000000E+009;1.758597195148468E-001;9.667560225352645E-004;2.520259586162865E-004;3.373104846104980E-003;
2.409166666666667E+009;1.753370612859726E-001;-3.537311858963221E-004;3.189859271515161E-004;3.403777489438653E-003;
2.409333333333334E+009;1.747598201036453E-001;-1.564581645652652E-003;5.339247290976346E-004;3.250250127166510E-003;
2.409500000000000E+009;1.740199327468872E-001;-3.062395611777902E-003;4.245397867634893E-004;3.177789971232414E-003;
2.409666666666667E+009;1.732948720455170E-001;-4.454867914319038E-003;6.118494202382863E-004;3.187964204698801E-003;
2.409833333333334E+009;1.724117547273636E-001;-5.695939529687166E-003;7.644384750165045E-004;2.974176779389381E-003;
2.410000000000000E+009;1.720632910728455E-001;-7.190111558884382E-003;7.837003795430064E-004;3.178452840074897E-003;
2.410166666666667E+009;1.713416725397110E-001;-8.762929588556290E-003;1.004229183308780E-003;2.855266677215695E-003;
2.410333333333334E+009;1.706715673208237E-001;-1.023036614060402E-002;9.739934466779232E-004;2.989073051139712E-003;
2.410500000000000E+009;1.702469289302826E-001;-1.207360532134771E-002;1.149206305854023E-003;2.934312680736184E-003;
2.410666666666667E+009;1.696058809757233E-001;-1.400920096784830E-002;1.033779815770686E-003;2.763191238045692E-003;
2.410833333333334E+009;1.691345870494843E-001;-1.555290073156357E-002;1.170461066067219E-003;2.873238176107407E-003;
2.411000000000000E+009;1.690074354410172E-001;-1.741650141775608E-002;1.228161272592843E-003;2.789982827380300E-003;
2.411166666666667E+009;1.686242967844009E-001;-1.924677751958370E-002;1.438749372027814E-003;2.657160395756364E-003;
2.411333333333334E+009;1.685054302215576E-001;-2.118785120546818E-002;1.717357314191759E-003;2.627132693305612E-003;
2.411500000000000E+009;1.682157963514328E-001;-2.318994328379631E-002;1.607184298336506E-003;2.563797635957599E-003;
2.411666666666667E+009;1.682429909706116E-001;-2.499132603406906E-002;1.775021199136972E-003;2.485101111233234E-003;
2.411833333333334E+009;1.681336760520935E-001;-2.683258429169655E-002;1.982802990823984E-003;2.342351246625185E-003;
2.412000000000000E+009;1.682128310203552E-001;-2.889924496412277E-002;1.768265035934746E-003;2.239386085420847E-003;
2.412166666666667E+009;1.683233976364136E-001;-3.076958842575550E-002;2.092924667522311E-003;2.348988316953182E-003;
2.412333333333334E+009;1.686914265155792E-001;-3.265425190329552E-002;2.129418076947331E-003;2.126604784280062E-003;
2.412500000000000E+009;1.686760485172272E-001;-3.444339707493782E-002;2.210896462202072E-003;1.981029054149985E-003;
2.412666666666667E+009;1.690401732921600E-001;-3.639335930347443E-002;2.191877225413919E-003;1.804107450880110E-003;
2.412833333333334E+009;1.694630533456802E-001;-3.826693817973137E-002;2.324739703908563E-003;1.745569636113942E-003;
2.413000000000000E+009;1.697856187820435E-001;-3.999084234237671E-002;2.377092605456710E-003;1.599763636477292E-003;
2.413166666666667E+009;1.702388972043991E-001;-4.156839475035667E-002;2.502361312508583E-003;1.401077257469297E-003;
2.413333333333334E+009;1.704430133104324E-001;-4.325109720230103E-002;2.232881262898445E-003;1.401628134772182E-003;
2.413500000000000E+009;1.711296439170837E-001;-4.483662545681000E-002;2.487629419192672E-003;1.110310433432460E-003;
2.413666666666667E+009;1.716716885566711E-001;-4.634892195463181E-002;2.515138825401664E-003;1.188319991342723E-003;
2.413833333333334E+009;1.720795035362244E-001;-4.777774214744568E-002;2.494799206033349E-003;1.048732781782746E-003;
2.414000000000000E+009;1.723303496837616E-001;-4.913855716586113E-002;2.307481830939651E-003;6.970100221224129E-004;
2.414166666666667E+009;1.731210201978684E-001;-5.047862976789475E-002;2.442668424919248E-003;6.178968469612300E-004;
2.414333333333334E+009;1.736346185207367E-001;-5.178777500987053E-002;2.368069719523192E-003;5.989897763356566E-004;
2.414500000000000E+009;1.742247641086578E-001;-5.284441262483597E-002;2.297936938703060E-003;4.501251096371561E-004;
2.414666666666667E+009;1.747523546218872E-001;-5.385814607143402E-002;2.209451049566269E-003;4.400476464070380E-004;
2.414833333333334E+009;1.750816404819489E-001;-5.478766560554504E-002;2.178263617679477E-003;2.732465509325266E-004;
2.415000000000000E+009;1.755678653717041E-001;-5.561750382184982E-002;2.148229395970702E-003;3.056104833376594E-005;
2.415166666666667E+009;1.759727597236633E-001;-5.633546784520149E-002;2.250143559649587E-003;2.038738457486033E-004;
2.415333333333334E+009;1.764985322952271E-001;-5.721621215343475E-002;2.091617323458195E-003;1.698752603260800E-004;
2.415500000000000E+009;1.766069680452347E-001;-5.766707658767700E-002;1.952028367668390E-003;7.122349052224308E-005;
2.415666666666667E+009;1.768962740898132E-001;-5.813273414969444E-002;2.074011601507664E-003;6.315296195680276E-005;
2.415833333333334E+009;1.771008968353272E-001;-5.885379761457443E-002;1.898548100143671E-003;-1.090793884941377E-004;
2.416000000000000E+009;1.771312654018402E-001;-5.919802933931351E-002;1.927930046804249E-003;-1.186064910143614E-004;
2.416166666666667E+009;1.773349940776825E-001;-5.958626419305801E-002;1.845068880356848E-003;-2.181782110710628E-005;
2.416333333333334E+009;1.771683990955353E-001;-5.981326475739479E-002;1.851353561505675E-003;-2.611631352920085E-004;
2.416500000000000E+009;1.770791262388229E-001;-6.026756390929222E-002;1.628827769309282E-003;-2.562884183134884E-004;
2.416666666666667E+009;1.769143342971802E-001;-6.049286946654320E-002;1.728830509819090E-003;-3.130151017103344E-004;
2.416833333333334E+009;1.767638474702835E-001;-6.090034544467926E-002;1.708458061330020E-003;-2.989296044688672E-004;
2.417000000000000E+009;1.760913729667664E-001;-6.112174317240715E-002;1.703137066215277E-003;-2.785128017421812E-004;
2.417166666666667E+009;1.756673157215118E-001;-6.124448776245117E-002;1.604976481758058E-003;-2.873207558877766E-004;
2.417333333333334E+009;1.751596033573151E-001;-6.142814457416534E-002;1.479665050283074E-003;-2.544359886087477E-004;
2.417500000000000E+009;1.745559871196747E-001;-6.182293966412544E-002;1.558970310725272E-003;-4.143922706134617E-004;
2.417666666666667E+009;1.739654242992401E-001;-6.200944632291794E-002;1.566021237522364E-003;-4.420711775310338E-004;
2.417833333333334E+009;1.731067001819611E-001;-6.238997727632523E-002;1.524693914689124E-003;-4.082151281181723E-004;
2.418000000000000E+009;1.723129600286484E-001;-6.269824504852295E-002;1.475676777772605E-003;-2.660978352651000E-004;
2.418166666666667E+009;1.713051199913025E-001;-6.298563629388809E-002;1.447221613489091E-003;-4.228365723975003E-004;
2.418333333333334E+009;1.704632788896561E-001;-6.352759152650833E-002;1.377037493512034E-003;-4.787009966094047E-004;
2.418500000000000E+009;1.693804264068604E-001;-6.389956176280975E-002;1.277507748454809E-003;-4.975274787284434E-004;
2.418666666666667E+009;1.684612631797791E-001;-6.448788940906525E-002;1.337098423391581E-003;-4.690987698268145E-004;
2.418833333333334E+009;1.671183854341507E-001;-6.499907374382019E-002;1.338646747171879E-003;-4.072645388077945E-004;
2.419000000000000E+009;1.659895777702332E-001;-6.569215655326843E-002;1.279370742850006E-003;-4.447663668543100E-004;
2.419166666666667E+009;1.648955792188644E-001;-6.636627018451691E-002;1.251254812814295E-003;-4.674186056945473E-004;
2.419333333333334E+009;1.635784953832626E-001;-6.689950823783875E-002;1.244819257408381E-003;-4.615098587237299E-004;
2.419500000000000E+009;1.624575406312943E-001;-6.794525682926178E-002;1.280695432797074E-003;-5.025948048569262E-004;
2.419666666666667E+009;1.614412218332291E-001;-6.894100457429886E-002;1.134804100729525E-003;-5.157562554813922E-004;
2.419833333333334E+009;1.600745320320129E-001;-6.967440247535706E-002;1.133141806349158E-003;-5.316159222275019E-004;
2.420000000000000E+009;1.591017842292786E-001;-7.085679471492767E-002;1.141253393143416E-003;-6.143031059764326E-004;
2.420166666666667E+009;1.580059081315994E-001;-7.187405228614807E-002;1.207341323606670E-003;-5.327878170646727E-004;
2.420333333333334E+009;1.569848656654358E-001;-7.314838469028473E-002;1.191108254715800E-003;-5.916948430240154E-004;
2.420500000000000E+009;1.559167057275772E-001;-7.416317611932755E-002;1.103260088711977E-003;-4.849268298130482E-004;
2.420666666666667E+009;1.548862010240555E-001;-7.559046894311905E-002;1.101508038118482E-003;-6.353486096486449E-004;
2.420833333333334E+009;1.540822982788086E-001;-7.705263793468475E-002;1.122028217650950E-003;-6.044309120625258E-004;
2.421000000000000E+009;1.531605124473572E-001;-7.842604815959930E-002;1.081647351384163E-003;-5.879449308849871E-004;
2.421166666666667E+009;1.525826156139374E-001;-7.997550815343857E-002;1.079349312931299E-003;-5.711621488444507E-004;
2.421333333333334E+009;1.520746052265167E-001;-8.151031285524368E-002;1.008131424896419E-003;-6.035544793121517E-004;
2.421500000000000E+009;1.512380391359329E-001;-8.299874514341354E-002;1.187951071187854E-003;-5.946228629909456E-004;
2.421666666666667E+009;1.507675200700760E-001;-8.480953425168991E-002;1.185071188956499E-003;-8.065795409493148E-004;
2.421833333333334E+009;1.506099551916122E-001;-8.623728901147842E-002;1.176300575025380E-003;-6.778270471841097E-004;
2.422000000000000E+009;1.500135809183121E-001;-8.792218565940857E-002;1.154506811872125E-003;-5.786717520095408E-004;
2.422166666666667E+009;1.498059779405594E-001;-8.977182954549789E-002;1.121949288062751E-003;-7.196808001026511E-004;
2.422333333333334E+009;1.496931016445160E-001;-9.139221161603928E-002;1.026113866828382E-003;-7.778417202644050E-004;
2.422500000000000E+009;1.493988633155823E-001;-9.282054007053375E-002;1.049753744155169E-003;-7.599139935337007E-004;
2.422666666666667E+009;1.495410799980164E-001;-9.470586478710175E-002;9.421879076398909E-004;-7.731800433248282E-004;
2.422833333333334E+009;1.496173739433289E-001;-9.635297209024429E-002;1.004660036414862E-003;-8.236131980083883E-004;
2.423000000000000E+009;1.496248841285706E-001;-9.793828427791596E-002;1.066552591510117E-003;-7.701423601247370E-004;
2.423166666666667E+009;1.501071453094482E-001;-9.958054125308991E-002;1.073043327778578E-003;-8.900031098164618E-004;
2.423333333333334E+009;1.503293812274933E-001;-1.010420247912407E-001;9.330042521469295E-004;-9.202658548019826E-004;
2.423500000000000E+009;1.505033969879150E-001;-1.026258990168572E-001;1.067592995241284E-003;-8.384370012208819E-004;
2.423666666666667E+009;1.507892757654190E-001;-1.041619852185249E-001;9.890195215120912E-004;-1.043657073751092E-003;
2.423833333333334E+009;1.513416916131973E-001;-1.055655851960182E-001;9.068476501852274E-004;-8.326848619617522E-004;
2.424000000000000E+009;1.516027897596359E-001;-1.068427562713623E-001;8.810049621388316E-004;-8.782663499005139E-004;
2.424166666666667E+009;1.521605402231216E-001;-1.082328706979752E-001;8.240194874815643E-004;-1.047034165821970E-003;
2.424333333333334E+009;1.526759713888168E-001;-1.093144491314888E-001;8.331125718541443E-004;-9.374835062772036E-004;
2.424500000000000E+009;1.530011594295502E-001;-1.104875728487968E-001;7.875208393670619E-004;-1.037803362123668E-003;
2.424666666666667E+009;1.535154432058334E-001;-1.114745140075684E-001;6.978373276069760E-004;-1.106618670746684E-003;
2.424833333333334E+009;1.539198756217957E-001;-1.124561727046967E-001;8.161085424944758E-004;-1.031347899697721E-003;
2.425000000000000E+009;1.543688029050827E-001;-1.134664192795754E-001;7.343749166466296E-004;-1.099338405765593E-003;
2.425166666666667E+009;1.545991748571396E-001;-1.142890453338623E-001;7.412874838337302E-004;-1.142815686762333E-003;
2.425333333333334E+009;1.551268398761749E-001;-1.150057390332222E-001;7.148194126784802E-004;-1.000412972643971E-003;
2.425500000000000E+009;1.554831564426422E-001;-1.158158928155899E-001;6.266267155297101E-004;-1.045147655531764E-003;
2.425666666666667E+009;1.555747240781784E-001;-1.162882596254349E-001;5.885013961233199E-004;-1.118305604904890E-003;
2.425833333333334E+009;1.558040827512741E-001;-1.168683320283890E-001;6.706506246700883E-004;-1.170395058579743E-003;
2.426000000000000E+009;1.559068113565445E-001;-1.173655688762665E-001;6.509316735900939E-004;-1.073110615834594E-003;
2.426166666666667E+009;1.560857743024826E-001;-1.178528070449829E-001;5.420288653112948E-004;-1.100000576116145E-003;
2.426333333333334E+009;1.560404449701309E-001;-1.180981546640396E-001;3.452042001299560E-004;-9.698695503175259E-004;
2.426500000000000E+009;1.560838669538498E-001;-1.182907968759537E-001;4.626257868949324E-004;-1.109819160774350E-003;
2.426666666666667E+009;1.559579968452454E-001;-1.184057444334030E-001;5.694191204383969E-004;-1.075762556865811E-003;
2.426833333333334E+009;1.557644456624985E-001;-1.186426579952240E-001;3.635558532550931E-004;-1.127136987634003E-003;
2.427000000000000E+009;1.553451567888260E-001;-1.189258024096489E-001;6.227373960427940E-004;-1.046290504746139E-003;
2.427166666666667E+009;1.550557315349579E-001;-1.189873442053795E-001;6.167227984406054E-004;-1.191483577713370E-003;
2.427333333333334E+009;1.544171869754791E-001;-1.191029995679855E-001;4.927796544507146E-004;-1.195196295157075E-003;
2.427500000000000E+009;1.540425419807434E-001;-1.191266179084778E-001;5.207386566326022E-004;-1.210857299156487E-003;
2.427666666666667E+009;1.532424688339233E-001;-1.193670257925987E-001;3.832846414297819E-004;-1.122096437029541E-003;
2.427833333333334E+009;1.524345278739929E-001;-1.194003894925118E-001;5.110463243909180E-004;-1.214368385262787E-003;
