# Version 1.00
#
freq[Hz];re:Trc1_S11;im:Trc1_S11;re:Trc2_S21;im:Trc2_S21;
2.400000000000000E+009;1.583757251501083E-001;6.204494088888168E-002;-2.414413262158632E-003;-1.002725795842707E-003;
2.400166666666667E+009;1.580821871757507E-001;6.053797155618668E-002;-2.378412522375584E-003;-8.581723668612540E-004;
2.400333333333334E+009;1.579544246196747E-001;5.850517749786377E-002;-2.428569830954075E-003;-9.267383720725775E-004;
2.400500000000000E+009;1.581075042486191E-001;5.662318319082260E-002;-2.490394515916705E-003;-8.033052436076105E-004;
2.400666666666667E+009;1.579417735338211E-001;5.461417883634567E-002;-2.542366040870547E-003;-7.280365680344403E-004;
2.400833333333334E+009;1.580917984247208E-001;5.282811447978020E-002;-2.568633761256933E-003;-9.088020888157189E-004;
2.401000000000000E+009;1.582193225622177E-001;5.047389864921570E-002;-2.624434884637594E-003;-8.067375747486949E-004;
2.401166666666667E+009;1.584694534540176E-001;4.868876934051514E-002;-2.607870381325483E-003;-8.371033472940326E-004;
2.401333333333334E+009;1.585931479930878E-001;4.660956189036369E-002;-2.508234931156039E-003;-6.494852132163942E-004;
2.401500000000000E+009;1.588996797800064E-001;4.458365589380264E-002;-2.588061615824699E-003;-4.122525278944522E-004;
2.401666666666667E+009;1.593677252531052E-001;4.267635196447372E-002;-2.769987564533949E-003;-6.853597587905824E-004;
2.401833333333334E+009;1.598116010427475E-001;4.068440943956375E-002;-2.773460233584046E-003;-4.696138203144074E-004;
2.402000000000000E+009;1.600858718156815E-001;3.863306716084480E-002;-2.788454294204712E-003;-3.559830365702510E-004;
2.402166666666667E+009;1.605283319950104E-001;3.657900542020798E-002;-2.912135096266866E-003;-3.770273178815842E-004;
2.402333333333334E+009;1.609680354595184E-001;3.480031341314316E-002;-3.011443885043263E-003;-2.576470433268696E-004;
2.402500000000000E+009;1.621426641941071E-001;3.321927040815353E-002;-3.101554932072759E-003;-9.786384180188179E-005;
2.402666666666667E+009;1.626018136739731E-001;3.136160969734192E-002;-3.060640068724752E-003;-1.321934687439352E-004;
2.402833333333334E+009;1.632565706968308E-001;2.964508347213268E-002;-3.240429563447833E-003;3.932039908249863E-005;
2.403000000000000E+009;1.640961617231369E-001;2.808238193392754E-002;-3.092024009674788E-003;1.146950307884254E-004;
2.403166666666667E+009;1.650116592645645E-001;2.642093971371651E-002;-3.152626799419522E-003;2.529714838601649E-004;
2.403333333333334E+009;1.658877879381180E-001;2.513468451797962E-002;-3.348138416185975E-003;3.170231648255140E-004;
2.403500000000000E+009;1.667617410421372E-001;2.371895685791969E-002;-3.376052016392350E-003;5.631511448882520E-004;
2.403666666666667E+009;1.675590723752976E-001;2.219186350703239E-002;-3.297457937151194E-003;6.860016146674752E-004;
2.403833333333334E+009;1.687566787004471E-001;2.103141136467457E-002;-3.390575759112835E-003;8.258770685642958E-004;
2.404000000000000E+009;1.697961837053299E-001;1.988408155739307E-002;-3.365399315953255E-003;8.356950711458921E-004;
2.404166666666667E+009;1.705080568790436E-001;1.866073720157147E-002;-3.423241199925542E-003;1.124330097809434E-003;
2.404333333333334E+009;1.715825498104096E-001;1.773673295974731E-002;-3.351506078615785E-003;1.151901204138994E-003;
2.404500000000000E+009;1.721704453229904E-001;1.676343008875847E-002;-3.466629423201084E-003;1.446894253604114E-003;
2.404666666666667E+009;1.732304990291596E-001;1.586703769862652E-002;-3.339364891871810E-003;1.626250450499356E-003;
2.404833333333334E+009;1.741124242544174E-001;1.511184219270945E-002;-3.312094369903207E-003;1.753811142407358E-003;
2.405000000000000E+009;1.749161332845688E-001;1.431254856288433E-002;-3.381334245204926E-003;1.812907052226365E-003;
2.405166666666667E+009;1.757653057575226E-001;1.355846785008907E-002;-3.180913859978318E-003;2.217920729890466E-003;
2.405333333333334E+009;1.766818761825562E-001;1.295205205678940E-002;-3.024359932169318E-003;2.268304117023945E-003;
2.405500000000000E+009;1.773076355457306E-001;1.250882819294930E-002;-2.959431614726782E-003;2.460784511640668E-003;
2.405666666666667E+009;1.779106557369232E-001;1.210310310125351E-002;-2.854901598766446E-003;2.712413668632507E-003;
2.405833333333334E+009;1.783437281847000E-001;1.153358630836010E-002;-2.831148682162166E-003;2.722107106819749E-003;
2.406000000000000E+009;1.791366785764694E-001;1.110454183071852E-002;-2.660134807229042E-003;3.102763090282679E-003;
2.406166666666667E+009;1.793987154960632E-001;1.088267937302589E-002;-2.563766436651349E-003;3.080378286540508E-003;
2.406333333333334E+009;1.799256950616837E-001;1.059077493846417E-002;-2.290134551003575E-003;3.084572497755289E-003;
2.406500000000000E+009;1.800600588321686E-001;1.018443144857884E-002;-2.110650297254324E-003;3.329218132421374E-003;
2.406666666666667E+009;1.800470501184464E-001;9.869820438325405E-003;-2.002509310841560E-003;3.332328982651234E-003;
2.406833333333334E+009;1.802276372909546E-001;9.506576694548130E-003;-1.855210401117802E-003;3.422810696065426E-003;
2.407000000000000E+009;1.804409772157669E-001;9.176882915198803E-003;-1.763604115694761E-003;3.475111909210682E-003;
2.407166666666667E+009;1.804544329643250E-001;8.769415318965912E-003;-1.307469909079373E-003;3.556121140718460E-003;
2.407333333333334E+009;1.803329139947891E-001;8.316786959767342E-003;-1.314442139118910E-003;3.628150327131152E-003;
2.407500000000000E+009;1.801807135343552E-001;7.823990657925606E-003;-1.184702035970986E-003;3.557864343747497E-003;
2.407666666666667E+009;1.800175309181213E-001;7.323685102164745E-003;-9.749698219820857E-004;3.553752088919282E-003;
2.407833333333334E+009;1.794446259737015E-001;6.695271003991365E-003;-7.875680457800627E-004;3.838895354419947E-003;
2.408000000000000E+009;1.791182607412338E-001;6.057945080101490E-003;-5.709975375793874E-004;3.691755468025804E-003;
2.408166666666667E+009;1.786415427923203E-001;5.496366415172815E-003;-4.397998563945293E-004;3.655034815892577E-003;
2.408333333333334E+009;1.783431321382523E-001;4.743012133985758E-003;-2.850120363291353E-004;3.505330998450518E-003;
2.408500000000000E+009;1.778003722429276E-001;3.839813638478518E-003;-1.663062139414251E-004;3.532970789819956E-003;
2.408666666666667E+009;1.772122532129288E-001;2.930093789473176E-003;4.712357622338459E-005;3.445765236392617E-003;
2.408833333333334E+009;1.765488833189011E-001;1.899904571473599E-003;1.629855396458879E-004;3.378309542313218E-003;
2.409000000000000E+009;1.757806092500687E-001;9.216213948093355E-004;1.728768111206591E-004;3.340929746627808E-003;
2.409166666666667E+009;1.753351092338562E-001;-4.047295660711825E-004;3.682803362607956E-004;3.285505808889866E-003;
2.409333333333334E+009;1.747950613498688E-001;-1.628391095437110E-003;5.787477712146938E-004;3.277925774455071E-003;
2.409500000000000E+009;1.738665401935577E-001;-2.982166595757008E-003;6.635375902988017E-004;3.237385535612702E-003;
2.409666666666667E+009;1.731877326965332E-001;-4.255895037204027E-003;6.323258276097477E-004;3.142541740089655E-003;
2.409833333333334E+009;1.724998652935028E-001;-5.633917637169361E-003;7.775416597723961E-004;3.078363835811615E-003;
2.410000000000000E+009;1.720072627067566E-001;-7.269713561981916E-003;8.501207921653986E-004;2.830302342772484E-003;
2.410166666666667E+009;1.714365780353546E-001;-8.547439239919186E-003;9.881005389615893E-004;3.094479208812118E-003;
2.410333333333334E+009;1.707117408514023E-001;-1.033465471118689E-002;8.474580245092511E-004;3.013531211763620E-003;
2.410500000000000E+009;1.703108996152878E-001;-1.214009150862694E-002;1.127349096350372E-003;2.814704785123467E-003;
2.410666666666667E+009;1.697292774915695E-001;-1.395119447261095E-002;1.354604843072593E-003;2.779632108286023E-003;
2.410833333333334E+009;1.693540513515472E-001;-1.551832538098097E-002;1.322704134508967E-003;2.811468206346035E-003;
2.411000000000000E+009;1.689293086528778E-001;-1.740322820842266E-002;1.612323918379843E-003;2.795115811750293E-003;
2.411166666666667E+009;1.687243580818176E-001;-1.938525587320328E-002;1.496511278674007E-003;2.727381419390440E-003;
2.411333333333334E+009;1.685085594654083E-001;-2.125026285648346E-002;1.530034583993256E-003;2.607780741527677E-003;
2.411500000000000E+009;1.682715564966202E-001;-2.299611829221249E-002;1.795756747014821E-003;2.586723305284977E-003;
2.411666666666667E+009;1.682625859975815E-001;-2.496743574738503E-002;1.898235408589244E-003;2.416529227048159E-003;
2.411833333333334E+009;1.683311909437180E-001;-2.674059569835663E-002;1.806638552807272E-003;2.281415043398738E-003;
2.412000000000000E+009;1.683710962533951E-001;-2.885645814239979E-002;1.951230573467910E-003;2.124819206073880E-003;
2.412166666666667E+009;1.683567464351654E-001;-3.081467933952808E-002;2.079073572531343E-003;2.287977142259479E-003;
2.412333333333334E+009;1.686241179704666E-001;-3.249785676598549E-002;2.029254799708724E-003;2.085603540763259E-003;
2.412500000000000E+009;1.688785403966904E-001;-3.438751026988030E-002;2.361168619245291E-003;1.910943537950516E-003;
2.412666666666667E+009;1.690046787261963E-001;-3.645920380949974E-002;2.146542537957430E-003;1.936820801347494E-003;
2.412833333333334E+009;1.694427132606506E-001;-3.814223781228066E-002;2.355031436309218E-003;1.727338880300522E-003;
2.413000000000000E+009;1.696847081184387E-001;-3.991788253188133E-002;2.365469466894865E-003;1.471294439397752E-003;
2.413166666666667E+009;1.701379865407944E-001;-4.158158972859383E-002;2.652212744578719E-003;1.384055707603693E-003;
2.413333333333334E+009;1.705936491489410E-001;-4.334003478288651E-002;2.476774854585528E-003;1.354285050183535E-003;
2.413500000000000E+009;1.710857599973679E-001;-4.486287385225296E-002;2.424478530883789E-003;1.222287770360708E-003;
2.413666666666667E+009;1.717447489500046E-001;-4.636886715888977E-002;2.623891457915306E-003;9.243944659829140E-004;
2.413833333333334E+009;1.721164882183075E-001;-4.783677309751511E-002;2.540123648941517E-003;8.009116863831878E-004;
2.414000000000000E+009;1.725324392318726E-001;-4.926424473524094E-002;2.330772113054991E-003;7.611492183059454E-004;
2.414166666666667E+009;1.732123941183090E-001;-5.038550123572350E-002;2.331702504307032E-003;6.418667617253959E-004;
2.414333333333334E+009;1.735693216323853E-001;-5.168372765183449E-002;2.423655241727829E-003;6.137263262644410E-004;
2.414500000000000E+009;1.744979023933411E-001;-5.273375660181046E-002;2.326131565496326E-003;5.940293776802719E-004;
2.414666666666667E+009;1.747931540012360E-001;-5.381471291184425E-002;2.328654984012246E-003;3.892278473358601E-004;
2.414833333333334E+009;1.752329617738724E-001;-5.482637882232666E-002;2.327248221263290E-003;3.107625816483051E-004;
2.415000000000000E+009;1.755411922931671E-001;-5.552342906594276E-002;2.163453726097941E-003;1.901399809867144E-004;
2.415166666666667E+009;1.760205477476120E-001;-5.643129348754883E-002;2.187931211665273E-003;2.573533274699003E-004;
2.415333333333334E+009;1.764635890722275E-001;-5.716437473893166E-002;2.001924440264702E-003;6.730145832989365E-005;
2.415500000000000E+009;1.766040623188019E-001;-5.775585770606995E-002;2.097515156492591E-003;4.612841075868346E-005;
2.415666666666667E+009;1.768849343061447E-001;-5.821208655834198E-002;1.978886546567082E-003;7.273950177477673E-005;
2.415833333333334E+009;1.772274821996689E-001;-5.882618948817253E-002;1.991434954106808E-003;-3.674805338960141E-005;
2.416000000000000E+009;1.771027892827988E-001;-5.914977192878723E-002;1.786276348866522E-003;-8.830906881485134E-005;
2.416166666666667E+009;1.774653494358063E-001;-5.957658216357231E-002;1.776490476913750E-003;-1.912807638291270E-004;
2.416333333333334E+009;1.772857010364533E-001;-5.982493609189987E-002;1.800266792997718E-003;-2.994668029714376E-004;
2.416500000000000E+009;1.771677881479263E-001;-6.018114835023880E-002;1.801606034860015E-003;-2.175637346226722E-004;
2.416666666666667E+009;1.769232749938965E-001;-6.043490022420883E-002;1.768409507349134E-003;-3.826396423391998E-004;
2.416833333333334E+009;1.766667664051056E-001;-6.093532219529152E-002;1.669287914410234E-003;-1.722906163195148E-004;
2.417000000000000E+009;1.762008070945740E-001;-6.109798699617386E-002;1.619009184651077E-003;-3.775728691834956E-004;
2.417166666666667E+009;1.757036298513413E-001;-6.121443584561348E-002;1.527347834780812E-003;-3.250929003115743E-004;
2.417333333333334E+009;1.753325015306473E-001;-6.138644367456436E-002;1.572425593622029E-003;-3.770245239138603E-004;
2.417500000000000E+009;1.745119094848633E-001;-6.191646680235863E-002;1.587381120771170E-003;-3.174324228893966E-004;
2.417666666666667E+009;1.738368272781372E-001;-6.208249926567078E-002;1.476730220019817E-003;-5.016864161007106E-004;
2.417833333333334E+009;1.731972843408585E-001;-6.236805766820908E-002;1.447092858143151E-003;-3.228026325814426E-004;
2.418000000000000E+009;1.721414178609848E-001;-6.283269822597504E-002;1.407147385179997E-003;-3.943624033126980E-004;
2.418166666666667E+009;1.713401228189468E-001;-6.303559988737106E-002;1.561510027386248E-003;-5.358195630833507E-004;
2.418333333333334E+009;1.706078350543976E-001;-6.352815777063370E-002;1.375950290821493E-003;-5.797118647024036E-004;
2.418500000000000E+009;1.693327277898789E-001;-6.393844634294510E-002;1.431398675777018E-003;-2.914459037128836E-004;
2.418666666666667E+009;1.684536337852478E-001;-6.448764353990555E-002;1.408516312949359E-003;-5.641372408717871E-004;
2.418833333333334E+009;1.671182364225388E-001;-6.511622667312622E-002;1.282847137190402E-003;-4.377550503704697E-004;
2.419000000000000E+009;1.658922880887985E-001;-6.568219512701035E-002;1.353939645923674E-003;-6.020204164087772E-004;
2.419166666666667E+009;1.648491621017456E-001;-6.635472923517227E-002;1.386847230605781E-003;-5.416758940555155E-004;
2.419333333333334E+009;1.635790765285492E-001;-6.698205322027206E-002;1.262959558516741E-003;-4.303416353650391E-004;
2.419500000000000E+009;1.625452041625977E-001;-6.799278408288956E-002;1.173186930827797E-003;-6.136441370472312E-004;
2.419666666666667E+009;1.613325476646423E-001;-6.902440637350082E-002;1.257561845704913E-003;-5.108207114972174E-004;
2.419833333333334E+009;1.600970029830933E-001;-6.973250955343247E-002;1.189111033454537E-003;-5.663764895871282E-004;
2.420000000000000E+009;1.590338498353958E-001;-7.086610049009323E-002;1.150028780102730E-003;-4.314010438974947E-004;
2.420166666666667E+009;1.578500121831894E-001;-7.192757725715637E-002;1.084990915842354E-003;-5.804042448289692E-004;
2.420333333333334E+009;1.568778306245804E-001;-7.325243204832077E-002;1.213339157402515E-003;-6.299249944277108E-004;
2.420500000000000E+009;1.560953855514526E-001;-7.438287883996964E-002;1.189180300571024E-003;-5.733077996410430E-004;
2.420666666666667E+009;1.550274491310120E-001;-7.561326771974564E-002;1.181063009425998E-003;-4.801632021553814E-004;
2.420833333333334E+009;1.542032510042191E-001;-7.704422622919083E-002;1.202225917950273E-003;-5.528868641704321E-004;
2.421000000000000E+009;1.532163918018341E-001;-7.857643812894821E-002;1.258807606063783E-003;-6.897199782542884E-004;
2.421166666666667E+009;1.526080816984177E-001;-8.005914092063904E-002;1.135771861299872E-003;-5.289257387630642E-004;
2.421333333333334E+009;1.519196480512619E-001;-8.159162104129791E-002;1.053691725246608E-003;-5.853426991961896E-004;
2.421500000000000E+009;1.512074917554855E-001;-8.300746232271195E-002;1.197083969600499E-003;-5.321079515852034E-004;
2.421666666666667E+009;1.509020775556564E-001;-8.464136719703674E-002;1.098634675145149E-003;-6.430058274418116E-004;
2.421833333333334E+009;1.504465043544769E-001;-8.636920899152756E-002;1.120749861001968E-003;-8.800038485787809E-004;
2.422000000000000E+009;1.499885171651840E-001;-8.787923306226730E-002;1.265780301764607E-003;-6.714711198583245E-004;
2.422166666666667E+009;1.498311609029770E-001;-8.975220471620560E-002;1.154286786913872E-003;-6.493669934570789E-004;
2.422333333333334E+009;1.497348099946976E-001;-9.123460948467255E-002;1.134251826442778E-003;-7.609113818034530E-004;
2.422500000000000E+009;1.494138687849045E-001;-9.287193417549133E-002;1.171616371721029E-003;-7.475668680854142E-004;
2.422666666666667E+009;1.493116915225983E-001;-9.462438523769379E-002;9.466456831432879E-004;-7.805905188433826E-004;
2.422833333333334E+009;1.497248858213425E-001;-9.640157222747803E-002;1.051849918439984E-003;-8.514082292094827E-004;
2.423000000000000E+009;1.497255563735962E-001;-9.789334982633591E-002;8.556793327443302E-004;-8.320340421050787E-004;
2.423166666666667E+009;1.500156223773956E-001;-9.954542666673660E-002;1.028533210046589E-003;-8.664457709528506E-004;
2.423333333333334E+009;1.502905189990997E-001;-1.010219976305962E-001;9.834186639636755E-004;-9.390133200213313E-004;
2.423500000000000E+009;1.505150794982910E-001;-1.026558652520180E-001;1.003870158456266E-003;-1.048613339662552E-003;
2.423666666666667E+009;1.506733447313309E-001;-1.042691320180893E-001;8.731755660846829E-004;-9.880631696432829E-004;
2.423833333333334E+009;1.514304280281067E-001;-1.056038290262222E-001;9.702198440209031E-004;-9.724145638756454E-004;
2.424000000000000E+009;1.516130864620209E-001;-1.067399382591248E-001;8.171039517037571E-004;-1.014047651551664E-003;
2.424166666666667E+009;1.520700901746750E-001;-1.082759052515030E-001;7.733026286587119E-004;-1.075952663086355E-003;
2.424333333333334E+009;1.526393592357636E-001;-1.092972308397293E-001;7.614520145580173E-004;-8.660576422698796E-004;
2.424500000000000E+009;1.531511396169663E-001;-1.105336397886276E-001;9.066974744200707E-004;-1.058046356774867E-003;
2.424666666666667E+009;1.536965817213059E-001;-1.114704385399818E-001;7.179374224506319E-004;-1.025416888296604E-003;
2.424833333333334E+009;1.538672596216202E-001;-1.126095056533814E-001;7.810631650500000E-004;-1.073539489880204E-003;
2.425000000000000E+009;1.543994992971420E-001;-1.135804802179337E-001;6.457301788032055E-004;-9.966277284547687E-004;
2.425166666666667E+009;1.546322256326675E-001;-1.143004223704338E-001;6.713509792461991E-004;-1.167801558040083E-003;
2.425333333333334E+009;1.549900025129318E-001;-1.151087433099747E-001;4.951300215907395E-004;-1.025199308060110E-003;
2.425500000000000E+009;1.554543375968933E-001;-1.158204600214958E-001;7.247623871080577E-004;-1.067019882611930E-003;
2.425666666666667E+009;1.554910242557526E-001;-1.163878291845322E-001;5.844893748871982E-004;-1.078306464478374E-003;
2.425833333333334E+009;1.557252556085587E-001;-1.168519333004952E-001;5.887884763069451E-004;-1.157596707344055E-003;
2.426000000000000E+009;1.559389829635620E-001;-1.174616143107414E-001;5.146314506419003E-004;-9.814165532588959E-004;
2.426166666666667E+009;1.562085300683975E-001;-1.177085638046265E-001;4.723766760434955E-004;-9.788427269086242E-004;
2.426333333333334E+009;1.559945344924927E-001;-1.181728392839432E-001;5.105035961605609E-004;-1.029506907798350E-003;
2.426500000000000E+009;1.560623198747635E-001;-1.182731091976166E-001;4.172027111053467E-004;-1.038103247992694E-003;
2.426666666666667E+009;1.560927927494049E-001;-1.183800101280212E-001;4.597661027219147E-004;-1.167787238955498E-003;
2.426833333333334E+009;1.558567732572556E-001;-1.186337843537331E-001;4.453040310181677E-004;-1.058608992025256E-003;
2.427000000000000E+009;1.553935557603836E-001;-1.188959628343582E-001;5.592478555627167E-004;-1.076836721040309E-003;
2.427166666666667E+009;1.549950540065765E-001;-1.189109757542610E-001;5.739118205383420E-004;-9.976516012102366E-004;
2.427333333333334E+009;1.544068753719330E-001;-1.190200224518776E-001;5.562740261666477E-004;-1.148384995758534E-003;
2.427500000000000E+009;1.540303379297257E-001;-1.192518994212151E-001;5.797449266538024E-004;-1.167770475149155E-003;
2.427666666666667E+009;1.532244682312012E-001;-1.193259805440903E-001;4.293167148716748E-004;-1.228757086209953E-003;
2.427833333333334E+009;1.524103879928589E-001;-1.194538846611977E-001;4.176899383310229E-004;-1.127889612689614E-003;
