# Version 1.00
#
freq[Hz];re:Trc1_S11;im:Trc1_S11;re:Trc2_S21;im:Trc2_S21;
2.400000000000000E+009;1.549140512943268E-001;1.063677296042442E-001;-4.189361061435193E-004;1.051867729984224E-003;
2.400166666666667E+009;1.547817736864090E-001;1.040368154644966E-001;-2.621460298541933E-004;1.184988068416715E-003;
2.400333333333334E+009;1.547735184431076E-001;1.016485095024109E-001;-4.433204303495586E-004;1.214686315506697E-003;
2.400500000000000E+009;1.547864228487015E-001;9.887671470642090E-002;-3.111333062406629E-004;1.246426720172167E-003;
2.400666666666667E+009;1.548530161380768E-001;9.648645669221878E-002;-2.173526809201576E-005;1.289593987166882E-003;
2.400833333333334E+009;1.550733000040054E-001;9.354207664728165E-002;-5.325474558048882E-005;1.401782035827637E-003;
2.401000000000000E+009;1.552020758390427E-001;9.077224880456924E-002;6.495623529190198E-005;1.339232781901956E-003;
2.401166666666667E+009;1.552985161542893E-001;8.801418542861939E-002;2.378539829805959E-005;1.168514834716916E-003;
2.401333333333334E+009;1.557497531175613E-001;8.512023091316223E-002;-4.851105040870607E-005;1.081214868463576E-003;
2.401500000000000E+009;1.562263369560242E-001;8.247514814138413E-002;1.594693312654272E-004;1.185240573249757E-003;
2.401666666666667E+009;1.566601991653442E-001;7.953806221485138E-002;2.675995165191125E-005;1.096497639082372E-003;
2.401833333333334E+009;1.572218239307404E-001;7.687923312187195E-002;1.713009260129184E-004;1.035843743011355E-003;
2.402000000000000E+009;1.581705659627914E-001;7.423321902751923E-002;3.083092451561242E-005;1.051619299687445E-003;
2.402166666666667E+009;1.587888747453690E-001;7.163488119840622E-002;-5.699947359971702E-005;1.092331716790795E-003;
2.402333333333334E+009;1.599774509668350E-001;6.897994130849838E-002;6.043884786777198E-005;1.061708782799542E-003;
2.402500000000000E+009;1.610453873872757E-001;6.643595546483994E-002;-2.723479410633445E-004;1.132008386775851E-003;
2.402666666666667E+009;1.622960120439529E-001;6.424337625503540E-002;-6.104948261054233E-005;1.087560551241040E-003;
2.402833333333334E+009;1.635739803314209E-001;6.167737394571304E-002;-2.292116987518966E-004;1.172332908026874E-003;
2.403000000000000E+009;1.651536524295807E-001;5.945400148630142E-002;-3.610923886299133E-004;1.218552002683282E-003;
2.403166666666667E+009;1.667171716690064E-001;5.730148777365685E-002;-4.647666646633297E-004;1.240870100446045E-003;
2.403333333333334E+009;1.681839674711227E-001;5.521992221474648E-002;-5.147447227500379E-004;1.387534197419882E-003;
2.403500000000000E+009;1.699198186397553E-001;5.314426869153976E-002;-6.392143550328910E-004;1.690275152213872E-003;
2.403666666666667E+009;1.715406775474548E-001;5.110989883542061E-002;-6.058025173842907E-004;1.821438199840486E-003;
2.403833333333334E+009;1.732489168643951E-001;4.952666535973549E-002;-3.684211696963757E-004;2.186094177886844E-003;
2.404000000000000E+009;1.747327744960785E-001;4.767960682511330E-002;-1.517162600066513E-004;2.367371460422874E-003;
2.404166666666667E+009;1.765148043632507E-001;4.607712849974632E-002;-7.841207661840599E-006;2.479364862665534E-003;
2.404333333333334E+009;1.781428158283234E-001;4.468804225325584E-002;2.633918775245547E-004;2.745173173025250E-003;
2.404500000000000E+009;1.795967817306519E-001;4.332955181598663E-002;4.614785430021584E-004;2.807304263114929E-003;
2.404666666666667E+009;1.813520491123200E-001;4.232255369424820E-002;6.074400735087693E-004;3.016417846083641E-003;
2.404833333333334E+009;1.829172372817993E-001;4.122273251414299E-002;9.826576570048928E-004;2.884912537410855E-003;
2.405000000000000E+009;1.841676682233810E-001;4.065108299255371E-002;1.239871256984770E-003;2.830065554007888E-003;
2.405166666666667E+009;1.857628822326660E-001;3.982799500226975E-002;1.458454877138138E-003;2.643834566697478E-003;
2.405333333333334E+009;1.870236396789551E-001;3.937807679176331E-002;1.702374429441989E-003;2.699719043448567E-003;
2.405500000000000E+009;1.883941143751144E-001;3.888694196939468E-002;1.902365474961698E-003;2.631758572533727E-003;
2.405666666666667E+009;1.895332187414169E-001;3.859602287411690E-002;2.033865079283714E-003;2.447269856929779E-003;
2.405833333333334E+009;1.907692700624466E-001;3.833722695708275E-002;2.154682297259569E-003;2.346402266994119E-003;
2.406000000000000E+009;1.917326748371124E-001;3.800215199589729E-002;2.374037168920040E-003;2.176387235522270E-003;
2.406166666666667E+009;1.926787495613098E-001;3.807893395423889E-002;2.386180916801095E-003;2.035811077803373E-003;
2.406333333333334E+009;1.936334967613220E-001;3.806298598647118E-002;2.505108248442411E-003;2.025830326601863E-003;
2.406500000000000E+009;1.942561864852905E-001;3.805958479642868E-002;2.679233439266682E-003;1.991216093301773E-003;
2.406666666666667E+009;1.947780251502991E-001;3.813445940613747E-002;2.904910128563643E-003;1.887159189209342E-003;
2.406833333333334E+009;1.953787058591843E-001;3.802527114748955E-002;2.782134339213371E-003;1.728364732116461E-003;
2.407000000000000E+009;1.956183612346649E-001;3.823686018586159E-002;3.007945138961077E-003;1.575214904733002E-003;
2.407166666666667E+009;1.959887444972992E-001;3.791834041476250E-002;3.062363481149077E-003;1.514220028184354E-003;
2.407333333333334E+009;1.960737258195877E-001;3.821489214897156E-002;3.380360547453165E-003;1.402491587214172E-003;
2.407500000000000E+009;1.958331465721130E-001;3.819844871759415E-002;3.392064711079001E-003;1.231894711963832E-003;
2.407666666666667E+009;1.958292871713638E-001;3.806141391396523E-002;3.427737159654498E-003;1.036517089232802E-003;
2.407833333333334E+009;1.953692734241486E-001;3.788688033819199E-002;3.616088302806020E-003;8.412148454226553E-004;
2.408000000000000E+009;1.951749175786972E-001;3.774986788630486E-002;3.821026766672730E-003;6.439959397539496E-004;
2.408166666666667E+009;1.945708394050598E-001;3.748450800776482E-002;3.867248771712184E-003;2.890390460379422E-004;
2.408333333333334E+009;1.941321939229965E-001;3.683036565780640E-002;4.068320151418448E-003;9.787543967831880E-005;
2.408500000000000E+009;1.934922635555267E-001;3.651486337184906E-002;4.077930469065905E-003;-3.709105367306620E-004;
2.408666666666667E+009;1.930170804262161E-001;3.596225008368492E-002;3.897299757227302E-003;-5.043696146458387E-004;
2.408833333333334E+009;1.922009736299515E-001;3.515216708183289E-002;3.825575578957796E-003;-7.803351036272943E-004;
2.409000000000000E+009;1.912519782781601E-001;3.418720513582230E-002;3.909501247107983E-003;-1.065849093720317E-003;
2.409166666666667E+009;1.904189884662628E-001;3.321005031466484E-002;3.694996237754822E-003;-1.306356745772064E-003;
2.409333333333334E+009;1.893451958894730E-001;3.202174231410027E-002;3.532573115080595E-003;-1.559762633405626E-003;
2.409500000000000E+009;1.882628649473190E-001;3.076836094260216E-002;3.424034453928471E-003;-1.869960455223918E-003;
2.409666666666667E+009;1.874284446239471E-001;2.933098934590817E-002;3.295930335298181E-003;-2.031542127951980E-003;
2.409833333333334E+009;1.863601654767990E-001;2.776870690286160E-002;3.187843132764101E-003;-2.214000560343266E-003;
2.410000000000000E+009;1.854188442230225E-001;2.610865980386734E-002;2.859408268705010E-003;-2.267852658405900E-003;
2.410166666666667E+009;1.841987967491150E-001;2.418035082519054E-002;2.688655629754067E-003;-2.448148094117641E-003;
2.410333333333334E+009;1.833406239748001E-001;2.226092852652073E-002;2.592114033177495E-003;-2.697809366509318E-003;
2.410500000000000E+009;1.824372559785843E-001;2.047713659703732E-002;2.360272454097867E-003;-2.758524147793651E-003;
2.410666666666667E+009;1.817000508308411E-001;1.825045607984066E-002;2.076145727187395E-003;-2.874031430110335E-003;
2.410833333333334E+009;1.809891313314438E-001;1.608577556908131E-002;1.773876138031483E-003;-2.806524513289332E-003;
2.411000000000000E+009;1.802976578474045E-001;1.379659865051508E-002;1.796405529603362E-003;-2.984905615448952E-003;
2.411166666666667E+009;1.797213107347488E-001;1.155639067292213E-002;1.455947989597917E-003;-2.849249634891748E-003;
2.411333333333334E+009;1.790779381990433E-001;9.092492982745171E-003;1.342850737273693E-003;-2.994787180796266E-003;
2.411500000000000E+009;1.786651909351349E-001;6.699484307318926E-003;1.271962653845549E-003;-3.075158689171076E-003;
2.411666666666667E+009;1.786112487316132E-001;4.453056491911411E-003;1.035020570270717E-003;-3.107691183686256E-003;
2.411833333333334E+009;1.783334910869598E-001;1.887127989903092E-003;7.787813665345311E-004;-3.040090668946505E-003;
2.412000000000000E+009;1.784152388572693E-001;-5.664151976816356E-004;5.829916335642338E-004;-3.147532930597663E-003;
2.412166666666667E+009;1.785769164562225E-001;-2.895778976380825E-003;3.390370693523437E-004;-3.291458357125521E-003;
2.412333333333334E+009;1.786804050207138E-001;-5.316984374076128E-003;2.433726476738229E-004;-3.154182573780417E-003;
2.412500000000000E+009;1.794202774763107E-001;-7.793930359184742E-003;-3.618878326960839E-005;-3.031683387234807E-003;
2.412666666666667E+009;1.796655356884003E-001;-1.007794216275215E-002;-3.580657648853958E-004;-3.095639171078801E-003;
2.412833333333334E+009;1.804315447807312E-001;-1.245287712663412E-002;-5.539756384678185E-004;-2.976730000227690E-003;
2.413000000000000E+009;1.811302900314331E-001;-1.476311031728983E-002;-8.404598920606077E-004;-2.700217766687274E-003;
2.413166666666667E+009;1.819856911897659E-001;-1.689938642084599E-002;-9.952739346772432E-004;-2.714320784434676E-003;
2.413333333333334E+009;1.831416785717011E-001;-1.926477998495102E-002;-1.306785270571709E-003;-2.647708402946591E-003;
2.413500000000000E+009;1.837446093559265E-001;-2.138365991413593E-002;-1.365984440781176E-003;-2.196639310568571E-003;
2.413666666666667E+009;1.849601566791534E-001;-2.365065366029739E-002;-1.560565899126232E-003;-2.104026498273015E-003;
2.413833333333334E+009;1.860852837562561E-001;-2.556137740612030E-002;-1.689655007794499E-003;-1.689357217401266E-003;
2.414000000000000E+009;1.870885938405991E-001;-2.736650034785271E-002;-1.685273135080934E-003;-1.452095573768020E-003;
2.414166666666667E+009;1.884663850069046E-001;-2.923316322267056E-002;-1.696312217973173E-003;-1.217894139699638E-003;
2.414333333333334E+009;1.894778460264206E-001;-3.102217055857182E-002;-1.837952644564211E-003;-8.491345215588808E-004;
2.414500000000000E+009;1.906542181968689E-001;-3.251433372497559E-002;-1.652864273637533E-003;-7.942653028294444E-004;
2.414666666666667E+009;1.919141858816147E-001;-3.394322469830513E-002;-1.686523202806711E-003;-3.728962619788945E-004;
2.414833333333334E+009;1.930624991655350E-001;-3.530737385153770E-002;-1.584215322509408E-003;-1.870771375251934E-004;
2.415000000000000E+009;1.941486895084381E-001;-3.645307943224907E-002;-1.270885113626719E-003;-1.636870729271323E-004;
2.415166666666667E+009;1.955424100160599E-001;-3.750049322843552E-002;-1.283297315239906E-003;-2.715259142860305E-005;
2.415333333333334E+009;1.964936107397080E-001;-3.853066265583038E-002;-1.106160343624651E-003;2.562254667282105E-005;
2.415500000000000E+009;1.975526958703995E-001;-3.915242105722427E-002;-9.264984400942922E-004;2.251713449368253E-004;
2.415666666666667E+009;1.984493285417557E-001;-3.996223211288452E-002;-7.996016065590084E-004;2.479762188158929E-004;
2.415833333333334E+009;1.993026733398438E-001;-4.052556678652763E-002;-6.793410866521299E-004;5.040213582105935E-004;
2.416000000000000E+009;2.001125812530518E-001;-4.107409715652466E-002;-6.308773881755769E-004;4.015925223939121E-004;
2.416166666666667E+009;2.008668482303619E-001;-4.169505834579468E-002;-3.603638033382595E-004;4.944986430928111E-004;
2.416333333333334E+009;2.013654261827469E-001;-4.200183600187302E-002;-3.457382554188371E-004;6.829623598605394E-004;
2.416500000000000E+009;2.019146680831909E-001;-4.217592626810074E-002;-1.914244930958375E-004;6.802735151723027E-004;
2.416666666666667E+009;2.020673602819443E-001;-4.254457354545593E-002;1.060996874002740E-004;8.015579078346491E-004;
2.416833333333334E+009;2.021715492010117E-001;-4.254098236560822E-002;2.795320760924369E-004;7.256031967699528E-004;
2.417000000000000E+009;2.022986412048340E-001;-4.267879948019981E-002;4.205798904877156E-004;6.362174754031003E-004;
2.417166666666667E+009;2.020256966352463E-001;-4.261612147092819E-002;8.230974781326950E-004;5.188590148463845E-004;
2.417333333333334E+009;2.017927467823029E-001;-4.250226542353630E-002;9.289478184655309E-004;4.742979654110968E-004;
2.417500000000000E+009;2.014207094907761E-001;-4.242998361587524E-002;1.141383545473218E-003;3.615817695390433E-004;
2.417666666666667E+009;2.008140534162521E-001;-4.234123602509499E-002;1.167790847830474E-003;1.497835328336805E-004;
2.417833333333334E+009;2.004708051681519E-001;-4.216494783759117E-002;1.327024423517287E-003;9.310877794632688E-005;
2.418000000000000E+009;1.997339874505997E-001;-4.196997359395027E-002;1.427582697942853E-003;1.676769670666545E-006;
2.418166666666667E+009;1.988896727561951E-001;-4.180505871772766E-002;1.589100691489875E-003;-4.327229107730091E-004;
2.418333333333334E+009;1.978339254856110E-001;-4.173104092478752E-002;1.496644108556211E-003;-6.279979716055095E-004;
2.418500000000000E+009;1.968640238046646E-001;-4.179422557353973E-002;1.610813196748495E-003;-7.649998879060149E-004;
2.418666666666667E+009;1.958702355623245E-001;-4.163819923996925E-002;1.631506253033876E-003;-1.038518501445651E-003;
2.418833333333334E+009;1.945604979991913E-001;-4.200126975774765E-002;1.554921269416809E-003;-1.181305269710720E-003;
2.419000000000000E+009;1.934585422277451E-001;-4.209974780678749E-002;1.425017253495753E-003;-1.320172566920519E-003;
2.419166666666667E+009;1.921380460262299E-001;-4.243261367082596E-002;1.372673083096743E-003;-1.681884052231908E-003;
2.419333333333334E+009;1.907380968332291E-001;-4.296715930104256E-002;1.235399395227432E-003;-1.742354943417013E-003;
2.419500000000000E+009;1.892447173595429E-001;-4.338970407843590E-002;1.114946324378252E-003;-1.963074551895261E-003;
2.419666666666667E+009;1.877587884664536E-001;-4.420635849237442E-002;9.092246182262898E-004;-2.089377492666245E-003;
2.419833333333334E+009;1.861906796693802E-001;-4.499780014157295E-002;7.701522554270923E-004;-2.277321880683303E-003;
2.420000000000000E+009;1.847216486930847E-001;-4.589155688881874E-002;6.705232081003487E-004;-2.290071919560432E-003;
2.420166666666667E+009;1.829317361116409E-001;-4.685319587588310E-002;5.868354346603155E-004;-2.346902154386044E-003;
2.420333333333334E+009;1.812874972820282E-001;-4.800594598054886E-002;3.288306761533022E-004;-2.551751444116235E-003;
2.420500000000000E+009;1.796381622552872E-001;-4.934576153755188E-002;2.023773849941790E-004;-2.530295401811600E-003;
2.420666666666667E+009;1.782507002353668E-001;-5.050689354538918E-002;9.114539716392756E-005;-2.557014347985387E-003;
2.420833333333334E+009;1.766565740108490E-001;-5.195175856351852E-002;-3.116939842584543E-005;-2.550251083448529E-003;
2.421000000000000E+009;1.752212345600128E-001;-5.367713421583176E-002;-2.558478445280343E-004;-2.527962205931544E-003;
2.421166666666667E+009;1.738159805536270E-001;-5.523497983813286E-002;-4.384919302538037E-004;-2.473163418471813E-003;
2.421333333333334E+009;1.721795350313187E-001;-5.672233551740646E-002;-5.142530426383019E-004;-2.342409919947386E-003;
2.421500000000000E+009;1.709546893835068E-001;-5.871022865176201E-002;-7.539951475337148E-004;-2.479943213984370E-003;
2.421666666666667E+009;1.697637289762497E-001;-6.055387109518051E-002;-8.405449916608632E-004;-2.507276367396116E-003;
2.421833333333334E+009;1.688127070665360E-001;-6.228785589337349E-002;-9.828554466366768E-004;-2.342489082366228E-003;
2.422000000000000E+009;1.675669401884079E-001;-6.426109373569489E-002;-1.106057083234191E-003;-2.417039824649692E-003;
2.422166666666667E+009;1.668296009302139E-001;-6.632183492183685E-002;-1.182603184133768E-003;-2.324790460988879E-003;
2.422333333333334E+009;1.658278107643127E-001;-6.830359250307083E-002;-1.273036701604724E-003;-2.270160010084510E-003;
2.422500000000000E+009;1.651739031076431E-001;-7.020073384046555E-002;-1.369316363707185E-003;-2.334118122234941E-003;
2.422666666666667E+009;1.644192337989807E-001;-7.224418967962265E-002;-1.626387471333146E-003;-2.210312755778432E-003;
2.422833333333334E+009;1.639867424964905E-001;-7.429563999176025E-002;-1.643629395402968E-003;-2.239170018583536E-003;
2.423000000000000E+009;1.636903584003449E-001;-7.618572562932968E-002;-1.686991541646421E-003;-2.085059415549040E-003;
2.423166666666667E+009;1.631512194871903E-001;-7.833173125982285E-002;-2.068927744403482E-003;-2.120983554050326E-003;
2.423333333333334E+009;1.631704717874527E-001;-8.016360551118851E-002;-2.084878971800208E-003;-2.093072514981031E-003;
2.423500000000000E+009;1.628692895174027E-001;-8.182475715875626E-002;-2.189522376284003E-003;-1.979650231078267E-003;
2.423666666666667E+009;1.630261987447739E-001;-8.377104997634888E-002;-2.438451629132032E-003;-1.933696446940303E-003;
2.423833333333334E+009;1.629708260297775E-001;-8.550754189491272E-002;-2.588961040601134E-003;-1.729740295559168E-003;
2.424000000000000E+009;1.629820019006729E-001;-8.712039142847061E-002;-2.648496069014072E-003;-1.648358302190900E-003;
2.424166666666667E+009;1.632246375083923E-001;-8.869043737649918E-002;-2.803140319883823E-003;-1.262596109881997E-003;
2.424333333333334E+009;1.633581668138504E-001;-9.023324400186539E-002;-2.872354583814740E-003;-8.834017207846046E-004;
2.424500000000000E+009;1.638173013925552E-001;-9.178495407104492E-002;-3.058427711948752E-003;-8.887374424375594E-004;
2.424666666666667E+009;1.638874262571335E-001;-9.322878718376160E-002;-3.117445856332779E-003;-6.457509007304907E-004;
2.424833333333334E+009;1.645944863557816E-001;-9.430716186761856E-002;-2.996888244524598E-003;-3.153265861328691E-004;
2.425000000000000E+009;1.648619323968887E-001;-9.555736184120178E-002;-2.998324576765299E-003;-6.437232514144853E-005;
2.425166666666667E+009;1.652638167142868E-001;-9.660149365663528E-002;-3.010813612490892E-003;-7.105607437551953E-006;
2.425333333333334E+009;1.654816716909409E-001;-9.766590595245361E-002;-2.961069112643600E-003;2.132937079295516E-004;
2.425500000000000E+009;1.660002470016480E-001;-9.849723428487778E-002;-2.747591119259596E-003;3.701219393406063E-004;
2.425666666666667E+009;1.664617210626602E-001;-9.916859865188599E-002;-2.617040416225791E-003;5.845975247211754E-004;
2.425833333333334E+009;1.667025536298752E-001;-9.987183660268784E-002;-2.528456039726734E-003;7.041260832920671E-004;
2.426000000000000E+009;1.672227233648300E-001;-1.003361791372299E-001;-2.386026782914996E-003;6.444656173698604E-004;
2.426166666666667E+009;1.674244552850723E-001;-1.009276583790779E-001;-2.238123212009668E-003;7.607672596350312E-004;
2.426333333333334E+009;1.674984693527222E-001;-1.012478098273277E-001;-2.329431474208832E-003;8.752080611884594E-004;
2.426500000000000E+009;1.679196953773499E-001;-1.017062887549400E-001;-1.999987987801433E-003;9.740181849338114E-004;
2.426666666666667E+009;1.681423783302307E-001;-1.018829494714737E-001;-1.912604318931699E-003;1.092292484827340E-003;
2.426833333333334E+009;1.683016419410706E-001;-1.020995900034905E-001;-1.881105359643698E-003;8.723384235054255E-004;
2.427000000000000E+009;1.682850718498230E-001;-1.023003235459328E-001;-1.816730946302414E-003;1.036773552186787E-003;
2.427166666666667E+009;1.682768464088440E-001;-1.025793328881264E-001;-1.707786228507757E-003;1.231427537277341E-003;
2.427333333333334E+009;1.681692898273468E-001;-1.027728393673897E-001;-1.632664469070733E-003;1.121887820772827E-003;
2.427500000000000E+009;1.678549498319626E-001;-1.029440090060234E-001;-1.606845646165311E-003;1.224223524332047E-003;
2.427666666666667E+009;1.675769090652466E-001;-1.029414162039757E-001;-1.457399339415133E-003;1.217255834490061E-003;
