# Version 1.00
#
freq[Hz];re:Trc1_S11;im:Trc1_S11;re:Trc2_S21;im:Trc2_S21;
2.400000000000000E+009;1.549828350543976E-001;1.065604984760284E-001;-2.914858050644398E-004;9.676977060735226E-004;
2.400166666666667E+009;1.548637747764587E-001;1.039562374353409E-001;-4.183037090115249E-004;1.258855336345732E-003;
2.400333333333334E+009;1.550582945346832E-001;1.018211245536804E-001;-1.777719589881599E-004;1.399621833115816E-003;
2.400500000000000E+009;1.547878384590149E-001;9.883774816989899E-002;-3.201461513526738E-004;1.253126887604594E-003;
2.400666666666667E+009;1.550061255693436E-001;9.645991772413254E-002;-1.132902689278126E-004;1.330911531113088E-003;
2.400833333333334E+009;1.550723314285278E-001;9.355205297470093E-002;-4.981091478839517E-005;1.285436796024442E-003;
2.401000000000000E+009;1.553650647401810E-001;9.074431657791138E-002;-9.902229794533923E-005;1.275801332667470E-003;
2.401166666666667E+009;1.553220897912979E-001;8.797220140695572E-002;3.364798249094747E-005;1.200167927891016E-003;
2.401333333333334E+009;1.556462049484253E-001;8.517447113990784E-002;7.645216828677803E-005;1.168788876384497E-003;
2.401500000000000E+009;1.561870574951172E-001;8.229362219572067E-002;-2.473408858350013E-005;1.115276361815631E-003;
2.401666666666667E+009;1.565779596567154E-001;7.960216701030731E-002;8.687574882060289E-005;1.117925043217838E-003;
2.401833333333334E+009;1.571606099605560E-001;7.681037485599518E-002;-1.118855288950726E-005;1.127167488448322E-003;
2.402000000000000E+009;1.580321937799454E-001;7.413695007562637E-002;-4.727622581413016E-005;1.196592114865780E-003;
2.402166666666667E+009;1.589219123125076E-001;7.152362912893295E-002;-9.937818686012179E-005;1.108318101614714E-003;
2.402333333333334E+009;1.598242223262787E-001;6.905545294284821E-002;5.061302090325626E-006;1.118804793804884E-003;
2.402500000000000E+009;1.609746217727661E-001;6.640828400850296E-002;-2.248612145194784E-004;1.062413677573204E-003;
2.402666666666667E+009;1.623181104660034E-001;6.428582221269608E-002;-2.671481634024531E-004;1.114379265345633E-003;
2.402833333333334E+009;1.635628789663315E-001;6.186919659376144E-002;-1.889501581899822E-004;1.263640704564750E-003;
2.403000000000000E+009;1.649914979934692E-001;5.963777750730515E-002;-4.752468084916472E-004;1.265741302631795E-003;
2.403166666666667E+009;1.666436344385147E-001;5.730660632252693E-002;-5.742458160966635E-004;1.467898255214095E-003;
2.403333333333334E+009;1.680090576410294E-001;5.513081327080727E-002;-5.816491902805865E-004;1.546466839499772E-003;
2.403500000000000E+009;1.699356585741043E-001;5.302233248949051E-002;-4.567510040942580E-004;1.748626236803830E-003;
2.403666666666667E+009;1.715423315763474E-001;5.128911882638931E-002;-4.726306069642305E-004;2.059356076642871E-003;
2.403833333333334E+009;1.731655150651932E-001;4.943991452455521E-002;-4.082422819919884E-004;2.141564153134823E-003;
2.404000000000000E+009;1.748062521219254E-001;4.784661158919334E-002;-2.259977482026443E-004;2.547305542975664E-003;
2.404166666666667E+009;1.765767484903336E-001;4.617223143577576E-002;-4.126474323129514E-006;2.727251034229994E-003;
2.404333333333334E+009;1.782158166170120E-001;4.472220689058304E-002;1.576234208187088E-004;2.735761692747474E-003;
2.404500000000000E+009;1.796505004167557E-001;4.342610388994217E-002;4.319979343563318E-004;2.946536289528012E-003;
2.404666666666667E+009;1.813007593154907E-001;4.249328374862671E-002;7.786443457007408E-004;3.006625687703490E-003;
2.404833333333334E+009;1.830774694681168E-001;4.119938984513283E-002;9.703632094897330E-004;2.966859610751271E-003;
2.405000000000000E+009;1.841794252395630E-001;4.068390652537346E-002;1.328049460425973E-003;2.983741927891970E-003;
2.405166666666667E+009;1.855580955743790E-001;4.000699892640114E-002;1.546808751299977E-003;2.855291357263923E-003;
2.405333333333334E+009;1.869997233152390E-001;3.935251012444496E-002;1.659863744862378E-003;2.703338395804167E-003;
2.405500000000000E+009;1.883882433176041E-001;3.895189613103867E-002;1.893625012598932E-003;2.573383506387472E-003;
2.405666666666667E+009;1.894972175359726E-001;3.860589861869812E-002;2.176833571866155E-003;2.423821715638042E-003;
2.405833333333334E+009;1.908062994480133E-001;3.833384066820145E-002;2.173904795199633E-003;2.255184575915337E-003;
2.406000000000000E+009;1.917144805192947E-001;3.816350549459457E-002;2.342304680496454E-003;2.239569788798690E-003;
2.406166666666667E+009;1.926332265138626E-001;3.802146762609482E-002;2.517117653042078E-003;2.117031253874302E-003;
2.406333333333334E+009;1.936331540346146E-001;3.811485320329666E-002;2.667142776772380E-003;2.005055779591203E-003;
2.406500000000000E+009;1.943652629852295E-001;3.808137401938438E-002;2.767799654975534E-003;1.883104676380754E-003;
2.406666666666667E+009;1.949433982372284E-001;3.816162422299385E-002;2.776793437078595E-003;1.805395470000804E-003;
2.406833333333334E+009;1.954510658979416E-001;3.805190697312355E-002;2.887120237573981E-003;1.685085007920861E-003;
2.407000000000000E+009;1.958240717649460E-001;3.819242119789124E-002;2.964027691632509E-003;1.588333863765001E-003;
2.407166666666667E+009;1.959591954946518E-001;3.793833777308464E-002;3.103743540123105E-003;1.421910943463445E-003;
2.407333333333334E+009;1.958872526884079E-001;3.808279335498810E-002;3.215986303985119E-003;1.419593580067158E-003;
2.407500000000000E+009;1.958883404731751E-001;3.814134001731873E-002;3.328739898279309E-003;1.282667508348823E-003;
2.407666666666667E+009;1.957610994577408E-001;3.800099715590477E-002;3.515322227030993E-003;1.050722668878734E-003;
2.407833333333334E+009;1.952485889196396E-001;3.792802244424820E-002;3.641179529950023E-003;6.489661755040288E-004;
2.408000000000000E+009;1.952508091926575E-001;3.763286769390106E-002;3.746985225006938E-003;5.418740329332650E-004;
2.408166666666667E+009;1.946400851011276E-001;3.734631836414337E-002;3.872720990329981E-003;2.152153901988640E-004;
2.408333333333334E+009;1.941559761762619E-001;3.678793832659721E-002;3.854885930195451E-003;-1.331615785602480E-004;
2.408500000000000E+009;1.934601366519928E-001;3.636331111192703E-002;4.052231553941965E-003;-2.783190866466612E-004;
2.408666666666667E+009;1.928106248378754E-001;3.593282029032707E-002;4.041397012770176E-003;-6.998662138357759E-004;
2.408833333333334E+009;1.920945495367050E-001;3.514540567994118E-002;4.116223193705082E-003;-7.022647187113762E-004;
2.409000000000000E+009;1.911007314920425E-001;3.406649455428124E-002;3.799831727519631E-003;-1.030251150950790E-003;
2.409166666666667E+009;1.902432739734650E-001;3.311762586236000E-002;3.861707868054509E-003;-1.505703432485461E-003;
2.409333333333334E+009;1.895134598016739E-001;3.207696229219437E-002;3.669707104563713E-003;-1.609328668564558E-003;
2.409500000000000E+009;1.883656382560730E-001;3.083732910454273E-002;3.471192438155413E-003;-1.857007038779557E-003;
2.409666666666667E+009;1.874011605978012E-001;2.934209443628788E-002;3.363050520420075E-003;-1.875291229225695E-003;
2.409833333333334E+009;1.863100081682205E-001;2.777990326285362E-002;3.067067591473460E-003;-2.111283130943775E-003;
2.410000000000000E+009;1.853813081979752E-001;2.614505775272846E-002;2.945999614894390E-003;-2.391990274190903E-003;
2.410166666666667E+009;1.844507008790970E-001;2.413053251802921E-002;2.641096711158752E-003;-2.578756306320429E-003;
2.410333333333334E+009;1.835294663906097E-001;2.249730378389359E-002;2.564810449257493E-003;-2.622308908030391E-003;
2.410500000000000E+009;1.826311945915222E-001;2.046470157802105E-002;2.463238313794136E-003;-2.647751942276955E-003;
2.410666666666667E+009;1.815378963947296E-001;1.829834282398224E-002;2.290072618052363E-003;-2.752534346655011E-003;
2.410833333333334E+009;1.811445504426956E-001;1.593935489654541E-002;1.964527880772948E-003;-2.778534544631839E-003;
2.411000000000000E+009;1.803921610116959E-001;1.374082360416651E-002;1.815791008993983E-003;-2.879443811252713E-003;
2.411166666666667E+009;1.795607954263687E-001;1.153092551976442E-002;1.616090303286910E-003;-3.007431281730533E-003;
2.411333333333334E+009;1.792630553245544E-001;9.153368882834911E-003;1.478479825891554E-003;-3.168837865814567E-003;
2.411500000000000E+009;1.787736117839813E-001;6.800784729421139E-003;1.243965933099389E-003;-3.060039831325412E-003;
2.411666666666667E+009;1.785803288221359E-001;4.347319714725018E-003;9.929366642609239E-004;-3.091401187703013E-003;
2.411833333333334E+009;1.783370971679688E-001;2.040905412286520E-003;9.503480396233499E-004;-2.998244250193238E-003;
2.412000000000000E+009;1.783451735973358E-001;-4.828849050682038E-004;5.835956544615328E-004;-3.094482468441129E-003;
2.412166666666667E+009;1.786563545465469E-001;-2.949865767732263E-003;3.848596825264394E-004;-3.081720788031817E-003;
2.412333333333334E+009;1.788302212953568E-001;-5.359308794140816E-003;1.936803164426237E-004;-3.112170146778226E-003;
2.412500000000000E+009;1.792849004268646E-001;-7.730752695351839E-003;-1.490673184889602E-005;-2.997948089614511E-003;
2.412666666666667E+009;1.796728670597076E-001;-1.025635097175837E-002;-3.595273883547634E-004;-3.108028788119555E-003;
2.412833333333334E+009;1.804621666669846E-001;-1.259859744459391E-002;-5.993045051582158E-004;-2.946743275970221E-003;
2.413000000000000E+009;1.811257302761078E-001;-1.488886494189501E-002;-6.682648672722280E-004;-2.881331136450172E-003;
2.413166666666667E+009;1.819818168878555E-001;-1.693625748157501E-002;-1.053678221069276E-003;-2.722649369388819E-003;
2.413333333333334E+009;1.830068230628967E-001;-1.921885460615158E-002;-1.261709374375641E-003;-2.482755575329065E-003;
2.413500000000000E+009;1.837777793407440E-001;-2.169711701571941E-002;-1.440556487068534E-003;-2.371538663282991E-003;
2.413666666666667E+009;1.851644217967987E-001;-2.351312898099423E-002;-1.714624231681228E-003;-2.087818225845695E-003;
2.413833333333334E+009;1.859856992959976E-001;-2.538379281759262E-002;-1.697798375971615E-003;-1.805587438866496E-003;
2.414000000000000E+009;1.871918290853500E-001;-2.750645391643047E-002;-1.890477491542697E-003;-1.524428254924715E-003;
2.414166666666667E+009;1.884209513664246E-001;-2.918468974530697E-002;-1.818998018279672E-003;-1.250824308954179E-003;
2.414333333333334E+009;1.895128637552261E-001;-3.116457350552082E-002;-1.855713198892772E-003;-8.770726853981614E-004;
2.414500000000000E+009;1.906788051128388E-001;-3.261855989694595E-002;-1.673354418016970E-003;-7.504426757805049E-004;
2.414666666666667E+009;1.918852478265762E-001;-3.392913565039635E-002;-1.675198669545353E-003;-4.518510249909014E-004;
2.414833333333334E+009;1.930768042802811E-001;-3.533463180065155E-002;-1.507389009930193E-003;-1.122412068070844E-004;
2.415000000000000E+009;1.941137015819550E-001;-3.648597374558449E-002;-1.296980073675513E-003;1.677480099715467E-006;
2.415166666666667E+009;1.952864527702332E-001;-3.756762668490410E-002;-1.140243955887854E-003;4.863486537942663E-005;
2.415333333333334E+009;1.965504735708237E-001;-3.841826319694519E-002;-1.195681514218450E-003;6.866783223813400E-005;
2.415500000000000E+009;1.974603682756424E-001;-3.916903957724571E-002;-1.053986838087440E-003;1.945322292158380E-004;
2.415666666666667E+009;1.984973996877670E-001;-4.001983627676964E-002;-8.628752548247576E-004;2.783531090244651E-004;
2.415833333333334E+009;1.994021683931351E-001;-4.056628048419952E-002;-6.803160067647696E-004;3.299104864709079E-004;
2.416000000000000E+009;2.001785784959793E-001;-4.117674753069878E-002;-7.145124836824834E-004;3.878366551361978E-004;
2.416166666666667E+009;2.007232606410980E-001;-4.171592742204666E-002;-4.332873795647174E-004;5.432944744825363E-004;
2.416333333333334E+009;2.014415115118027E-001;-4.193829372525215E-002;-3.146713715977967E-004;6.516628200188279E-004;
2.416500000000000E+009;2.017701119184494E-001;-4.220021516084671E-002;-2.318212646059692E-004;6.066760979592800E-004;
2.416666666666667E+009;2.021979987621307E-001;-4.248424246907234E-002;2.187157042499166E-005;6.956747965887189E-004;
2.416833333333334E+009;2.022845596075058E-001;-4.245944693684578E-002;2.015177160501480E-004;7.680199341848493E-004;
2.417000000000000E+009;2.023792713880539E-001;-4.271890968084335E-002;3.836197138298303E-004;6.528496160171926E-004;
2.417166666666667E+009;2.020559310913086E-001;-4.257813096046448E-002;5.830747541040182E-004;5.167904309928417E-004;
2.417333333333334E+009;2.018158435821533E-001;-4.260249435901642E-002;7.146856514737010E-004;3.632565494626761E-004;
2.417500000000000E+009;2.014719247817993E-001;-4.247111082077026E-002;1.054764492437244E-003;2.286369708599523E-004;
2.417666666666667E+009;2.008291482925415E-001;-4.233383387327194E-002;1.202375511638820E-003;2.669026143848896E-004;
2.417833333333334E+009;2.004111260175705E-001;-4.211024194955826E-002;1.359686371870339E-003;-1.280840479012113E-005;
2.418000000000000E+009;1.997177004814148E-001;-4.192079231142998E-002;1.403171918354929E-003;-2.664111379999667E-004;
2.418166666666667E+009;1.988759040832520E-001;-4.191948845982552E-002;1.418832107447088E-003;-3.008441708516330E-004;
2.418333333333334E+009;1.978555619716644E-001;-4.178095608949661E-002;1.432307879440486E-003;-6.629189592786133E-004;
2.418500000000000E+009;1.969694048166275E-001;-4.190090671181679E-002;1.555208931677043E-003;-7.363158510997891E-004;
2.418666666666667E+009;1.959746032953262E-001;-4.174988344311714E-002;1.531515503302217E-003;-1.148989191278815E-003;
2.418833333333334E+009;1.945914626121521E-001;-4.197650775313377E-002;1.518282922916114E-003;-1.259654294699431E-003;
2.419000000000000E+009;1.933592855930328E-001;-4.221454262733460E-002;1.523340470157564E-003;-1.439688028767705E-003;
2.419166666666667E+009;1.920573711395264E-001;-4.257217049598694E-002;1.341553870588541E-003;-1.553776441141963E-003;
2.419333333333334E+009;1.906733363866806E-001;-4.287213459610939E-002;1.228457898832858E-003;-1.782326959073544E-003;
2.419500000000000E+009;1.892752051353455E-001;-4.351850599050522E-002;1.080486690625548E-003;-2.001314423978329E-003;
2.419666666666667E+009;1.876537650823593E-001;-4.429546743631363E-002;9.408404584974051E-004;-2.171180443838239E-003;
2.419833333333334E+009;1.861930787563324E-001;-4.499400407075882E-002;8.062623674049974E-004;-2.307753544300795E-003;
2.420000000000000E+009;1.845352202653885E-001;-4.585127159953117E-002;6.322261760942638E-004;-2.327355090528727E-003;
2.420166666666667E+009;1.829963773488998E-001;-4.685585200786591E-002;4.770209197886288E-004;-2.332069911062717E-003;
2.420333333333334E+009;1.814650893211365E-001;-4.807285219430924E-002;3.129363758489490E-004;-2.374520758166909E-003;
2.420500000000000E+009;1.797009259462357E-001;-4.933208972215653E-002;1.804814382921904E-004;-2.574393525719643E-003;
2.420666666666667E+009;1.781952381134033E-001;-5.060540884733200E-002;1.212653751281323E-005;-2.518194960430265E-003;
2.420833333333334E+009;1.765969246625900E-001;-5.199967324733734E-002;-2.146564365830272E-004;-2.607129281386733E-003;
2.421000000000000E+009;1.750788837671280E-001;-5.351875349879265E-002;-3.033149405382574E-004;-2.505247015506029E-003;
2.421166666666667E+009;1.737718433141708E-001;-5.530371516942978E-002;-3.587737737689167E-004;-2.403074409812689E-003;
2.421333333333334E+009;1.722349226474762E-001;-5.684678256511688E-002;-5.582615849561989E-004;-2.577432431280613E-003;
2.421500000000000E+009;1.709398925304413E-001;-5.866790562868118E-002;-8.182632736861706E-004;-2.458770992234349E-003;
2.421666666666667E+009;1.699101924896240E-001;-6.055617704987526E-002;-6.596809253096581E-004;-2.484573749825358E-003;
2.421833333333334E+009;1.686482578516007E-001;-6.226807832717896E-002;-1.042834599502385E-003;-2.381352707743645E-003;
2.422000000000000E+009;1.675098389387131E-001;-6.431045383214951E-002;-1.098658191040158E-003;-2.379327779635787E-003;
2.422166666666667E+009;1.668161600828171E-001;-6.635444611310959E-002;-1.199872815050185E-003;-2.480161609128118E-003;
2.422333333333334E+009;1.658761352300644E-001;-6.837582588195801E-002;-1.283082412555814E-003;-2.312300261110067E-003;
2.422500000000000E+009;1.651837676763535E-001;-7.012852281332016E-002;-1.489243120886385E-003;-2.242916030809283E-003;
2.422666666666667E+009;1.645336449146271E-001;-7.234701514244080E-002;-1.611275947652757E-003;-2.161789452657104E-003;
2.422833333333334E+009;1.639276295900345E-001;-7.423913478851318E-002;-1.763901091180742E-003;-2.237264066934586E-003;
2.423000000000000E+009;1.634584516286850E-001;-7.625715434551239E-002;-1.822687918320298E-003;-2.162114251405001E-003;
2.423166666666667E+009;1.631280928850174E-001;-7.816980779170990E-002;-2.048108959570527E-003;-2.063014544546604E-003;
2.423333333333334E+009;1.629324853420258E-001;-8.012470602989197E-002;-2.074484480544925E-003;-1.986103598028421E-003;
2.423500000000000E+009;1.628340035676956E-001;-8.189947903156281E-002;-2.311936579644680E-003;-2.043612301349640E-003;
2.423666666666667E+009;1.629172414541245E-001;-8.374071866273880E-002;-2.383507322520018E-003;-1.790763693861663E-003;
2.423833333333334E+009;1.629246324300766E-001;-8.562016487121582E-002;-2.515589585527778E-003;-1.672595390118659E-003;
2.424000000000000E+009;1.630076318979263E-001;-8.726710826158524E-002;-2.640684368088841E-003;-1.510406029410660E-003;
2.424166666666667E+009;1.630561351776123E-001;-8.868762850761414E-002;-2.906684530898929E-003;-1.521453494206071E-003;
2.424333333333334E+009;1.633773446083069E-001;-9.028340131044388E-002;-3.092628438025713E-003;-1.094113104045391E-003;
2.424500000000000E+009;1.637290716171265E-001;-9.197025746107101E-002;-2.995244227349758E-003;-8.649377268739045E-004;
2.424666666666667E+009;1.639746427536011E-001;-9.324177354574204E-002;-3.085052594542503E-003;-6.557487649843097E-004;
2.424833333333334E+009;1.645741760730743E-001;-9.449061751365662E-002;-3.048933343961835E-003;-2.955189265776426E-004;
2.425000000000000E+009;1.648861318826675E-001;-9.558036923408508E-002;-2.967890352010727E-003;-9.563575986248907E-006;
2.425166666666667E+009;1.651826053857803E-001;-9.670808911323547E-002;-3.079270245507360E-003;-2.459446659486275E-005;
2.425333333333334E+009;1.654749512672424E-001;-9.761764854192734E-002;-2.836506348103285E-003;2.921807463280857E-004;
2.425500000000000E+009;1.659632474184036E-001;-9.837517887353897E-002;-2.856734208762646E-003;4.006146336905658E-004;
2.425666666666667E+009;1.663527637720108E-001;-9.907051175832748E-002;-2.708565443754196E-003;5.743127549067140E-004;
2.425833333333334E+009;1.666714102029800E-001;-9.999491274356842E-002;-2.631895011290908E-003;7.485692040063441E-004;
2.426000000000000E+009;1.670165807008743E-001;-1.003648564219475E-001;-2.333590295165777E-003;8.368184790015221E-004;
2.426166666666667E+009;1.674978733062744E-001;-1.009195148944855E-001;-2.275069011375308E-003;8.987128967419267E-004;
2.426333333333334E+009;1.674500703811646E-001;-1.014358997344971E-001;-2.126265782862902E-003;9.882284794002771E-004;
2.426500000000000E+009;1.677780151367188E-001;-1.016132012009621E-001;-1.953519415110350E-003;1.043575932271779E-003;
2.426666666666667E+009;1.680963635444641E-001;-1.019558534026146E-001;-1.979821361601353E-003;1.131681376136839E-003;
2.426833333333334E+009;1.682879626750946E-001;-1.022095754742622E-001;-1.797271776013076E-003;1.116596045903862E-003;
2.427000000000000E+009;1.682394742965698E-001;-1.022988259792328E-001;-1.919008907862008E-003;1.099693588912487E-003;
2.427166666666667E+009;1.682795435190201E-001;-1.024978980422020E-001;-1.723728724755347E-003;1.043168944306672E-003;
2.427333333333334E+009;1.681948900222778E-001;-1.027859151363373E-001;-1.626485609449446E-003;1.261182711459696E-003;
2.427500000000000E+009;1.679150611162186E-001;-1.029242798686028E-001;-1.709874486550689E-003;1.131174620240927E-003;
2.427666666666667E+009;1.675505042076111E-001;-1.029406040906906E-001;-1.501911203376949E-003;1.097255269996822E-003;
