# Version 1.00
#
freq[Hz];re:Trc1_S11;im:Trc1_S11;re:Trc2_S21;im:Trc2_S21;
2.400000000000000E+009;1.690750271081924E-001;4.576392844319344E-002;-1.343674026429653E-003;-1.587993465363979E-003;
2.400166666666667E+009;1.700933724641800E-001;4.467185586690903E-002;-1.247245818376541E-003;-1.682343194261193E-003;
2.400333333333334E+009;1.710353940725327E-001;4.359490796923637E-002;-1.381171052344143E-003;-1.845117425546050E-003;
2.400500000000000E+009;1.721042245626450E-001;4.255914688110352E-002;-1.429141033440828E-003;-1.754328026436269E-003;
2.400666666666667E+009;1.730062216520309E-001;4.169971495866776E-002;-1.473955577239394E-003;-1.954122446477413E-003;
2.400833333333334E+009;1.739452481269836E-001;4.084851220250130E-002;-1.698005711659789E-003;-1.821934129111469E-003;
2.401000000000000E+009;1.746958643198013E-001;4.009271413087845E-002;-1.702416106127203E-003;-2.018493600189686E-003;
2.401166666666667E+009;1.755223721265793E-001;3.917082771658897E-002;-1.792823430150747E-003;-1.830870634876192E-003;
2.401333333333334E+009;1.759680956602097E-001;3.842121735215187E-002;-2.026753965765238E-003;-1.790297217667103E-003;
2.401500000000000E+009;1.770453751087189E-001;3.778916969895363E-002;-2.137292642146349E-003;-1.784016960300505E-003;
2.401666666666667E+009;1.775508522987366E-001;3.729504346847534E-002;-2.268744399771094E-003;-1.855275128036737E-003;
2.401833333333334E+009;1.779678165912628E-001;3.647704049944878E-002;-2.524280920624733E-003;-1.624935073778033E-003;
2.402000000000000E+009;1.782380640506744E-001;3.612673282623291E-002;-2.597062382847071E-003;-1.682046451605856E-003;
2.402166666666667E+009;1.786964982748032E-001;3.534672036767006E-002;-2.659962512552738E-003;-1.572479144670069E-003;
2.402333333333334E+009;1.791140735149384E-001;3.487983718514442E-002;-2.754417946562171E-003;-1.495186355896294E-003;
2.402500000000000E+009;1.795013993978500E-001;3.430518880486488E-002;-2.864112844690681E-003;-1.238957629539073E-003;
2.402666666666667E+009;1.799341440200806E-001;3.355518355965614E-002;-2.938619581982493E-003;-1.088388380594552E-003;
2.402833333333334E+009;1.796334087848663E-001;3.298353031277657E-002;-3.141868393868208E-003;-1.025567180477083E-003;
2.403000000000000E+009;1.796835809946060E-001;3.214796259999275E-002;-3.178258892148733E-003;-1.051394385285676E-003;
2.403166666666667E+009;1.797215342521668E-001;3.148893266916275E-002;-3.122194670140743E-003;-8.983446750789881E-004;
2.403333333333334E+009;1.797687113285065E-001;3.068525716662407E-002;-3.471919801086187E-003;-6.037997081875801E-004;
2.403500000000000E+009;1.793566644191742E-001;2.975801564753056E-002;-3.462995868176222E-003;-4.552271566353738E-004;
2.403666666666667E+009;1.792272627353668E-001;2.875511907041073E-002;-3.480951301753521E-003;-1.880191703094170E-004;
2.403833333333334E+009;1.790902912616730E-001;2.780433371663094E-002;-3.593896050006151E-003;-1.424601650796831E-004;
2.404000000000000E+009;1.786078065633774E-001;2.687663026154041E-002;-3.680819878354669E-003;1.039430644595996E-004;
2.404166666666667E+009;1.781840920448303E-001;2.561991475522518E-002;-3.800737205892801E-003;1.471487194066867E-004;
2.404333333333334E+009;1.776454150676727E-001;2.445722185075283E-002;-3.749587340280414E-003;2.854980702977628E-004;
2.404500000000000E+009;1.771363914012909E-001;2.306824177503586E-002;-3.877842565998435E-003;6.880960427224636E-004;
2.404666666666667E+009;1.767202466726303E-001;2.183873020112515E-002;-3.685127710923553E-003;8.032755577005446E-004;
2.404833333333334E+009;1.763245165348053E-001;2.037348970770836E-002;-3.689450910314918E-003;1.114730723202229E-003;
2.405000000000000E+009;1.757590621709824E-001;1.894567534327507E-002;-3.641478251665831E-003;1.314484281465411E-003;
2.405166666666667E+009;1.752260625362396E-001;1.721939072012901E-002;-3.484102198854089E-003;1.393390120938420E-003;
2.405333333333334E+009;1.749428510665894E-001;1.565978862345219E-002;-3.447368275374174E-003;1.742474036291242E-003;
2.405500000000000E+009;1.743542701005936E-001;1.417131535708904E-002;-3.286966588348150E-003;1.841417746618390E-003;
2.405666666666667E+009;1.740686595439911E-001;1.242454722523689E-002;-3.273572074249387E-003;1.894052023999393E-003;
2.405833333333334E+009;1.735203564167023E-001;1.068988814949989E-002;-3.075399668887258E-003;2.129283268004656E-003;
2.406000000000000E+009;1.734625548124313E-001;8.794672787189484E-003;-2.922084880992770E-003;2.228680299594998E-003;
2.406166666666667E+009;1.730184555053711E-001;6.935652811080217E-003;-2.672011032700539E-003;2.294795820489526E-003;
2.406333333333334E+009;1.730099618434906E-001;5.053826607763767E-003;-2.684134291484952E-003;2.358275698497891E-003;
2.406500000000000E+009;1.728499233722687E-001;2.943285740911961E-003;-2.478880574926734E-003;2.616761019453406E-003;
2.406666666666667E+009;1.725172400474548E-001;9.312425390817225E-004;-2.397302072495222E-003;2.592967357486486E-003;
2.406833333333334E+009;1.726070344448090E-001;-1.130686723627150E-003;-2.256448380649090E-003;2.713249763473868E-003;
2.407000000000000E+009;1.726645231246948E-001;-3.041642718017101E-003;-1.978130545467138E-003;2.956909127533436E-003;
2.407166666666667E+009;1.729715168476105E-001;-5.280483514070511E-003;-1.823253580369055E-003;2.925098640844226E-003;
2.407333333333334E+009;1.729490011930466E-001;-7.372586522251368E-003;-1.578179071657360E-003;2.921420847997069E-003;
2.407500000000000E+009;1.732780635356903E-001;-9.562278166413307E-003;-1.528230844996870E-003;3.115476341918111E-003;
2.407666666666667E+009;1.734598428010941E-001;-1.164327561855316E-002;-1.299966243095696E-003;3.163537941873074E-003;
2.407833333333334E+009;1.735940873622894E-001;-1.390961371362209E-002;-1.239521894603968E-003;3.122397465631366E-003;
2.408000000000000E+009;1.739946305751801E-001;-1.594149135053158E-002;-1.079910667613149E-003;3.116138512268663E-003;
2.408166666666667E+009;1.743858456611633E-001;-1.790001429617405E-002;-8.111967472359538E-004;3.148847259581089E-003;
2.408333333333334E+009;1.748455613851547E-001;-1.991996541619301E-002;-6.496300338767469E-004;3.203094936907291E-003;
2.408500000000000E+009;1.751141399145126E-001;-2.190903946757317E-002;-4.706973850261420E-004;3.118091030046344E-003;
2.408666666666667E+009;1.756841838359833E-001;-2.379057928919792E-002;-2.322814252693206E-004;3.064160235226154E-003;
2.408833333333334E+009;1.758482456207275E-001;-2.549306675791740E-002;-1.129296215367504E-004;2.966573927551508E-003;
2.409000000000000E+009;1.762108802795410E-001;-2.714841999113560E-002;1.432529461453669E-005;2.897580619901419E-003;
2.409166666666667E+009;1.766323000192642E-001;-2.857233583927155E-002;2.192948013544083E-004;2.749469596892595E-003;
2.409333333333334E+009;1.770503073930740E-001;-3.026829287409782E-002;4.909678827971220E-004;2.548294141888619E-003;
2.409500000000000E+009;1.774804443120956E-001;-3.168198093771935E-002;4.151024040766060E-004;2.648586174473167E-003;
2.409666666666667E+009;1.778087913990021E-001;-3.282969072461128E-002;4.345272318460047E-004;2.328529488295317E-003;
2.409833333333334E+009;1.782646030187607E-001;-3.372599184513092E-002;6.828481564298272E-004;2.319305203855038E-003;
2.410000000000000E+009;1.787519305944443E-001;-3.493341431021690E-002;8.881661924533546E-004;2.244591247290373E-003;
2.410166666666667E+009;1.792988032102585E-001;-3.570251539349556E-002;7.048672414384782E-004;2.146372804418206E-003;
2.410333333333334E+009;1.796466708183289E-001;-3.637251630425453E-002;8.643124019727111E-004;2.073462586849928E-003;
2.410500000000000E+009;1.800706237554550E-001;-3.717359900474548E-002;8.685183129273355E-004;1.840572105720639E-003;
2.410666666666667E+009;1.806241124868393E-001;-3.799808770418167E-002;8.914904901757836E-004;1.884901314042509E-003;
2.410833333333334E+009;1.809335350990295E-001;-3.854605183005333E-002;8.545576129108667E-004;1.621720381081104E-003;
2.411000000000000E+009;1.813153773546219E-001;-3.912862390279770E-002;7.299340795725584E-004;1.661742455326021E-003;
2.411166666666667E+009;1.814625263214111E-001;-3.969258442521095E-002;8.128482731990516E-004;1.567336847074330E-003;
2.411333333333334E+009;1.816029995679855E-001;-4.013962298631668E-002;7.838344899937511E-004;1.468402333557606E-003;
2.411500000000000E+009;1.815567761659622E-001;-4.082614183425903E-002;7.108170539140701E-004;1.463862252421677E-003;
2.411666666666667E+009;1.817736625671387E-001;-4.106448963284493E-002;6.602765643037856E-004;1.259585609659553E-003;
2.411833333333334E+009;1.815589219331741E-001;-4.143312200903893E-002;6.876665283925831E-004;1.316526671871543E-003;
2.412000000000000E+009;1.815581619739533E-001;-4.203063249588013E-002;7.182871922850609E-004;1.342179020866752E-003;
2.412166666666667E+009;1.813524812459946E-001;-4.230199381709099E-002;5.516213714145124E-004;1.197742181830108E-003;
2.412333333333334E+009;1.810568720102310E-001;-4.259119182825089E-002;4.998993827030063E-004;1.199299353174865E-003;
2.412500000000000E+009;1.804883629083633E-001;-4.275195300579071E-002;3.535411378834397E-004;1.169397728517652E-003;
2.412666666666667E+009;1.799356192350388E-001;-4.353465139865875E-002;4.238434194121510E-004;1.059657544828951E-003;
2.412833333333334E+009;1.794235855340958E-001;-4.383024573326111E-002;3.592029970604926E-004;1.169793191365898E-003;
2.413000000000000E+009;1.788332909345627E-001;-4.404745623469353E-002;2.530081546865404E-004;1.101616071537137E-003;
2.413166666666667E+009;1.778164803981781E-001;-4.460110515356064E-002;3.268033906351775E-004;1.202552812173963E-003;
2.413333333333334E+009;1.767707318067551E-001;-4.488345235586166E-002;2.186410274589434E-004;1.082464354112744E-003;
2.413500000000000E+009;1.760032922029495E-001;-4.542339965701103E-002;1.109003933379427E-004;1.241134246811271E-003;
2.413666666666667E+009;1.750181317329407E-001;-4.607199877500534E-002;1.439912739442661E-004;1.303811091929674E-003;
2.413833333333334E+009;1.738796383142471E-001;-4.650200530886650E-002;-3.709493830683641E-005;1.460243714973331E-003;
2.414000000000000E+009;1.726637184619904E-001;-4.721394553780556E-002;1.455063102184795E-005;1.575724687427282E-003;
2.414166666666667E+009;1.715688854455948E-001;-4.799606651067734E-002;1.170207906397991E-004;1.698730979114771E-003;
2.414333333333334E+009;1.705863177776337E-001;-4.876993969082832E-002;6.866970943519846E-005;1.734142773784697E-003;
2.414500000000000E+009;1.694118082523346E-001;-4.968921095132828E-002;9.128844249062240E-005;1.825345214456320E-003;
2.414666666666667E+009;1.680804044008255E-001;-5.053174495697022E-002;1.982864778256044E-004;1.967947697266936E-003;
2.414833333333334E+009;1.669399589300156E-001;-5.160347372293472E-002;3.011410881299526E-004;2.079478465020657E-003;
2.415000000000000E+009;1.656027436256409E-001;-5.269993469119072E-002;3.452211967669427E-004;2.121058059856296E-003;
2.415166666666667E+009;1.643817275762558E-001;-5.395960435271263E-002;5.104766460135579E-004;2.113845432177186E-003;
2.415333333333334E+009;1.633948534727097E-001;-5.530744418501854E-002;5.064292345196009E-004;2.241010777652264E-003;
2.415500000000000E+009;1.621901690959930E-001;-5.657917261123657E-002;7.077268091961741E-004;2.342463936656714E-003;
2.415666666666667E+009;1.609781980514526E-001;-5.801340565085411E-002;9.249969152733684E-004;2.397966571152210E-003;
2.415833333333334E+009;1.601004898548126E-001;-5.969730392098427E-002;9.755261708050966E-004;2.289511496201158E-003;
2.416000000000000E+009;1.588478535413742E-001;-6.144364178180695E-002;1.333688502199948E-003;2.519187284633517E-003;
2.416166666666667E+009;1.580864489078522E-001;-6.294857710599899E-002;1.228392124176025E-003;2.403965918347240E-003;
2.416333333333334E+009;1.569588482379913E-001;-6.477010995149612E-002;1.494367374107242E-003;2.542987931519747E-003;
2.416500000000000E+009;1.560212969779968E-001;-6.660966575145721E-002;1.644671428948641E-003;2.320151310414076E-003;
2.416666666666667E+009;1.550242602825165E-001;-6.844078004360199E-002;1.788500114344060E-003;2.256349194794893E-003;
2.416833333333334E+009;1.542731523513794E-001;-7.050485163927078E-002;2.037351019680500E-003;2.211584011092782E-003;
2.417000000000000E+009;1.533106565475464E-001;-7.232765108346939E-002;2.086936496198177E-003;2.265386050567031E-003;
2.417166666666667E+009;1.526635587215424E-001;-7.431472092866898E-002;2.270477358251810E-003;1.967384712770581E-003;
2.417333333333334E+009;1.520023941993713E-001;-7.607567310333252E-002;2.410192741081119E-003;2.003692090511322E-003;
2.417500000000000E+009;1.513141095638275E-001;-7.813344895839691E-002;2.542961621657014E-003;1.851308974437416E-003;
2.417666666666667E+009;1.509710699319840E-001;-7.979144901037216E-002;2.679763594642282E-003;1.735777710564435E-003;
2.417833333333334E+009;1.505942791700363E-001;-8.168640732765198E-002;2.675285330042243E-003;1.672383747063577E-003;
2.418000000000000E+009;1.500028073787689E-001;-8.361089974641800E-002;2.851306227967143E-003;1.417082850821316E-003;
2.418166666666667E+009;1.497429013252258E-001;-8.511511981487274E-002;3.042104188352823E-003;1.245369086973369E-003;
2.418333333333334E+009;1.497207880020142E-001;-8.695450425148010E-002;3.062594681978226E-003;1.049994956701994E-003;
2.418500000000000E+009;1.494346559047699E-001;-8.839391171932221E-002;3.202539635822177E-003;9.152641287073493E-004;
2.418666666666667E+009;1.494471877813339E-001;-8.980741351842880E-002;3.179616527631879E-003;5.812445888295770E-004;
2.418833333333334E+009;1.492328941822052E-001;-9.128464013338089E-002;3.134611994028091E-003;3.674454346764833E-004;
2.419000000000000E+009;1.492493301630020E-001;-9.259782731533051E-002;3.203997388482094E-003;2.904221182689071E-004;
2.419166666666667E+009;1.493720859289169E-001;-9.406136721372604E-002;3.157014027237892E-003;-7.368493243120611E-005;
2.419333333333334E+009;1.494199633598328E-001;-9.474305808544159E-002;3.177664009854198E-003;-2.342209336347878E-004;
2.419500000000000E+009;1.496697217226028E-001;-9.602203965187073E-002;2.905124565586448E-003;-5.059771356172860E-004;
2.419666666666667E+009;1.499564498662949E-001;-9.706092625856400E-002;2.938669640570879E-003;-6.752912886440754E-004;
2.419833333333334E+009;1.501034051179886E-001;-9.768632054328919E-002;2.771769883111119E-003;-7.441483321599662E-004;
2.420000000000000E+009;1.504357904195786E-001;-9.847109764814377E-002;2.879374660551548E-003;-9.813219076022506E-004;
2.420166666666667E+009;1.507187932729721E-001;-9.903629124164581E-002;2.567128743976355E-003;-1.053509302437306E-003;
2.420333333333334E+009;1.509813070297241E-001;-9.957461804151535E-002;2.399776596575975E-003;-1.228724955581129E-003;
2.420500000000000E+009;1.512036174535751E-001;-9.974239766597748E-002;2.211213810369372E-003;-1.382114947773516E-003;
2.420666666666667E+009;1.514261811971664E-001;-9.993074089288712E-002;2.112742047756910E-003;-1.278007635846734E-003;
2.420833333333334E+009;1.517132371664047E-001;-1.002901569008827E-001;1.909524668008089E-003;-1.256967196241021E-003;
2.421000000000000E+009;1.519714742898941E-001;-1.004173308610916E-001;1.799554098397493E-003;-1.210419810377061E-003;
2.421166666666667E+009;1.521330773830414E-001;-1.005259603261948E-001;1.669907243922353E-003;-1.268494757823646E-003;
2.421333333333334E+009;1.522747576236725E-001;-1.005304232239723E-001;1.601736526936293E-003;-1.307374448515475E-003;
2.421500000000000E+009;1.524093449115753E-001;-1.004866138100624E-001;1.372155151329935E-003;-1.181625411845744E-003;
2.421666666666667E+009;1.524005383253098E-001;-1.002513617277145E-001;1.349552185274661E-003;-1.219654688611627E-003;
2.421833333333334E+009;1.523783951997757E-001;-1.000845953822136E-001;1.378730405122042E-003;-1.328397775068879E-003;
2.422000000000000E+009;1.520765274763107E-001;-9.986697137355804E-002;1.336048473604024E-003;-1.120047527365387E-003;
2.422166666666667E+009;1.518968641757965E-001;-9.965061396360397E-002;1.226578489877284E-003;-1.155418809503317E-003;
2.422333333333334E+009;1.515458375215530E-001;-9.926240146160126E-002;1.228946959599853E-003;-1.131000928580761E-003;
2.422500000000000E+009;1.510851234197617E-001;-9.893646091222763E-002;1.233460032381117E-003;-1.035425812005997E-003;
2.422666666666667E+009;1.503043621778488E-001;-9.875158965587616E-002;1.145365880802274E-003;-1.061857445165515E-003;
2.422833333333334E+009;1.497896164655685E-001;-9.854339063167572E-002;1.114560873247683E-003;-9.909911314025521E-004;
2.423000000000000E+009;1.488717198371887E-001;-9.822400659322739E-002;1.107758260332048E-003;-9.636365575715900E-004;
2.423166666666667E+009;1.480408161878586E-001;-9.771233052015305E-002;1.139375614002347E-003;-1.085781259462237E-003;
2.423333333333334E+009;1.471058130264282E-001;-9.714956581592560E-002;9.505391935817897E-004;-1.150527270510793E-003;
2.423500000000000E+009;1.459764540195465E-001;-9.701562672853470E-002;1.180785126052797E-003;-1.012911321595311E-003;
2.423666666666667E+009;1.446032077074051E-001;-9.685216844081879E-002;9.177310275845230E-004;-1.150160096585751E-003;
2.423833333333334E+009;1.436431109905243E-001;-9.659072756767273E-002;9.699102374725044E-004;-1.015732297673821E-003;
2.424000000000000E+009;1.422515064477921E-001;-9.619266539812088E-002;9.851332288235426E-004;-1.148141105659306E-003;
2.424166666666667E+009;1.409759819507599E-001;-9.609152376651764E-002;7.335786940529943E-004;-9.723990224301815E-004;
2.424333333333334E+009;1.395686417818070E-001;-9.595295786857605E-002;7.828307570889592E-004;-1.205800916068256E-003;
2.424500000000000E+009;1.383433341979981E-001;-9.601838886737824E-002;9.709653095342219E-004;-1.184663851745427E-003;
2.424666666666667E+009;1.370292454957962E-001;-9.591422230005264E-002;8.197801071219146E-004;-1.213835086673498E-003;
2.424833333333334E+009;1.354028582572937E-001;-9.619906544685364E-002;7.245476590469480E-004;-1.132262055762112E-003;
2.425000000000000E+009;1.339788138866425E-001;-9.656725823879242E-002;5.627462523989379E-004;-1.136375591158867E-003;
2.425166666666667E+009;1.323765516281128E-001;-9.700702875852585E-002;5.555651150643826E-004;-1.066305674612522E-003;
2.425333333333334E+009;1.309813261032105E-001;-9.752950817346573E-002;5.321965436451137E-004;-1.008341438136995E-003;
2.425500000000000E+009;1.296540647745132E-001;-9.821195900440216E-002;5.356692126952112E-004;-9.696452179923654E-004;
2.425666666666667E+009;1.280828267335892E-001;-9.897428005933762E-002;5.930355982854962E-004;-9.531320538371801E-004;
2.425833333333334E+009;1.266649365425110E-001;-9.984626621007919E-002;4.722923040390015E-004;-7.807647343724966E-004;
2.426000000000000E+009;1.253310889005661E-001;-1.008350849151611E-001;4.117809585295618E-004;-8.037314983084798E-004;
2.426166666666667E+009;1.240501999855042E-001;-1.019573062658310E-001;3.884103498421609E-004;-7.971379091031849E-004;
2.426333333333334E+009;1.227041706442833E-001;-1.031274572014809E-001;5.213700351305306E-004;-6.749525200575590E-004;
2.426500000000000E+009;1.215939894318581E-001;-1.043771430850029E-001;4.717461706604809E-004;-5.996504332870245E-004;
2.426666666666667E+009;1.204872652888298E-001;-1.057780012488365E-001;5.937585374340415E-004;-5.455365171656013E-004;
2.426833333333334E+009;1.192056536674500E-001;-1.072348579764366E-001;7.343365577980876E-004;-5.934612127020955E-004;
2.427000000000000E+009;1.181754991412163E-001;-1.087721958756447E-001;6.249637226574123E-004;-5.340276984497905E-004;
2.427166666666667E+009;1.171992868185043E-001;-1.102630868554115E-001;8.105441229417920E-004;-4.755335394293070E-004;
2.427333333333334E+009;1.162514388561249E-001;-1.119371950626373E-001;9.557955199852586E-004;-4.958617500960827E-004;
2.427500000000000E+009;1.155207455158234E-001;-1.135994419455528E-001;1.026907935738564E-003;-6.151178386062384E-004;
2.427666666666667E+009;1.148306503891945E-001;-1.153564453125000E-001;1.097321859560907E-003;-4.048088740091771E-004;
2.427833333333334E+009;1.141839548945427E-001;-1.170547753572464E-001;1.321025658398867E-003;-5.679269670508802E-004;
