# Version 1.00
#
freq[Hz];re:Trc1_S11;im:Trc1_S11;re:Trc2_S21;im:Trc2_S21;
2.400000000000000E+009;1.609419733285904E-001;5.713120102882385E-002;8.714031428098679E-004;-1.762828556820750E-003;
2.400166666666667E+009;1.608359515666962E-001;5.550378933548927E-002;8.766254177317023E-004;-1.627872115932405E-003;
2.400333333333334E+009;1.610365808010101E-001;5.368905887007713E-002;7.768448558636010E-004;-1.465402310714126E-003;
2.400500000000000E+009;1.610347032546997E-001;5.192569643259049E-002;9.856548858806491E-004;-1.345364027656615E-003;
2.400666666666667E+009;1.612568497657776E-001;4.989429563283920E-002;9.123985073529184E-004;-1.410847529768944E-003;
2.400833333333334E+009;1.615558415651321E-001;4.815055802464485E-002;1.000468968413770E-003;-1.305246376432478E-003;
2.401000000000000E+009;1.615598350763321E-001;4.632870480418205E-002;1.030637300573289E-003;-1.236335723660886E-003;
2.401166666666667E+009;1.619028300046921E-001;4.424724727869034E-002;1.149497227743268E-003;-1.125687034800649E-003;
2.401333333333334E+009;1.621290296316147E-001;4.252130538225174E-002;1.074901432730258E-003;-1.175305224023759E-003;
2.401500000000000E+009;1.625480353832245E-001;4.056351631879807E-002;1.341753872111440E-003;-1.114749349653721E-003;
2.401666666666667E+009;1.628499031066895E-001;3.888374194502831E-002;1.362599898129702E-003;-1.165271620266140E-003;
2.401833333333334E+009;1.632044762372971E-001;3.692521154880524E-002;1.369365258142352E-003;-9.938970906659961E-004;
2.402000000000000E+009;1.635866761207581E-001;3.518959507346153E-002;1.499685924500227E-003;-9.436141699552536E-004;
2.402166666666667E+009;1.641146540641785E-001;3.322996199131012E-002;1.663398463279009E-003;-1.127219060435891E-003;
2.402333333333334E+009;1.643669754266739E-001;3.154041618108749E-002;1.715806778520346E-003;-1.168895629234612E-003;
2.402500000000000E+009;1.652197241783142E-001;3.009591996669769E-002;1.767462817952037E-003;-1.122141373343766E-003;
2.402666666666667E+009;1.657263040542603E-001;2.845895662903786E-002;2.144234022125602E-003;-1.243624486960471E-003;
2.402833333333334E+009;1.664522886276245E-001;2.695196308195591E-002;2.140515018254519E-003;-1.456677680835128E-003;
2.403000000000000E+009;1.670359373092651E-001;2.554688975214958E-002;2.157235285267234E-003;-1.262206118553877E-003;
2.403166666666667E+009;1.678878813982010E-001;2.409836649894714E-002;2.271475037559867E-003;-1.639462541788817E-003;
2.403333333333334E+009;1.687355637550354E-001;2.283744886517525E-002;2.384326420724392E-003;-1.714311190880835E-003;
2.403500000000000E+009;1.692238897085190E-001;2.168497629463673E-002;2.437063958495855E-003;-1.849727239459753E-003;
2.403666666666667E+009;1.699134111404419E-001;2.037703990936279E-002;2.355637261644006E-003;-1.997553510591388E-003;
2.403833333333334E+009;1.709035336971283E-001;1.909495145082474E-002;2.438264433294535E-003;-2.211235230788589E-003;
2.404000000000000E+009;1.714436858892441E-001;1.808517612516880E-002;2.506095450371504E-003;-2.369424561038613E-003;
2.404166666666667E+009;1.722058951854706E-001;1.715588942170143E-002;2.583113731816411E-003;-2.595590893179178E-003;
2.404333333333334E+009;1.728951632976532E-001;1.622798480093479E-002;2.368706976994872E-003;-2.807439770549536E-003;
2.404500000000000E+009;1.734138876199722E-001;1.529511902481318E-002;2.640267368406057E-003;-2.921670209616423E-003;
2.404666666666667E+009;1.741730421781540E-001;1.451941672712565E-002;2.214415464550257E-003;-3.306682687252760E-003;
2.404833333333334E+009;1.747427880764008E-001;1.376484520733357E-002;2.328600734472275E-003;-3.367885714396834E-003;
2.405000000000000E+009;1.755549907684326E-001;1.298756524920464E-002;2.248025499284267E-003;-3.530235961079598E-003;
2.405166666666667E+009;1.760201305150986E-001;1.240421459078789E-002;2.069012727588415E-003;-3.734729485586286E-003;
2.405333333333334E+009;1.765657216310501E-001;1.168959774076939E-002;2.012209035456181E-003;-3.945716191083193E-003;
2.405500000000000E+009;1.770647466182709E-001;1.117799989879131E-002;1.781348837539554E-003;-4.068402107805014E-003;
2.405666666666667E+009;1.774197816848755E-001;1.080344337970018E-002;1.539703807793558E-003;-4.175052046775818E-003;
2.405833333333334E+009;1.776937693357468E-001;1.052005868405104E-002;1.362778246402741E-003;-4.372084978967905E-003;
2.406000000000000E+009;1.780493408441544E-001;9.884875267744064E-003;1.161181251518428E-003;-4.578833002597094E-003;
2.406166666666667E+009;1.781745851039887E-001;9.712247177958489E-003;9.923737961798906E-004;-4.625126253813505E-003;
2.406333333333334E+009;1.785496473312378E-001;9.170929901301861E-003;1.118415617384017E-003;-4.681262653321028E-003;
2.406500000000000E+009;1.786024123430252E-001;8.763670921325684E-003;7.575478521175683E-004;-4.709593020379543E-003;
2.406666666666667E+009;1.783873438835144E-001;8.352031931281090E-003;5.638902075588703E-004;-4.805765114724636E-003;
2.406833333333334E+009;1.785796731710434E-001;7.866823114454746E-003;4.923576489090920E-004;-4.799791146069765E-003;
2.407000000000000E+009;1.785184592008591E-001;7.475592195987701E-003;2.350679133087397E-004;-4.867051728069782E-003;
2.407166666666667E+009;1.784386932849884E-001;7.030130829662085E-003;2.572872290329542E-005;-4.898543003946543E-003;
2.407333333333334E+009;1.782291680574417E-001;6.382821127772331E-003;-2.402806276222691E-004;-4.913894925266504E-003;
2.407500000000000E+009;1.778699159622192E-001;5.887050181627274E-003;-4.182625561952591E-004;-5.107447970658541E-003;
2.407666666666667E+009;1.777730137109757E-001;5.442365072667599E-003;-6.854163948446512E-004;-4.917871206998825E-003;
2.407833333333334E+009;1.772603690624237E-001;4.577155224978924E-003;-8.540981798432767E-004;-5.043878685683012E-003;
2.408000000000000E+009;1.768944412469864E-001;3.719162428751588E-003;-1.060164766386151E-003;-4.776781890541315E-003;
2.408166666666667E+009;1.764136105775833E-001;3.119609318673611E-003;-1.141156186349690E-003;-4.870453849434853E-003;
2.408333333333334E+009;1.761516183614731E-001;2.206654520705342E-003;-1.229097833856940E-003;-4.797078203409910E-003;
2.408500000000000E+009;1.754830628633499E-001;1.172716729342938E-003;-1.580181182362139E-003;-4.619954153895378E-003;
2.408666666666667E+009;1.748704314231873E-001;1.570899039506912E-004;-1.599339069798589E-003;-4.589476156979799E-003;
2.408833333333334E+009;1.743458807468414E-001;-9.667801787145436E-004;-1.733193639665842E-003;-4.651240073144436E-003;
2.409000000000000E+009;1.737253814935684E-001;-2.029132563620806E-003;-1.906730234622955E-003;-4.392557311803103E-003;
2.409166666666667E+009;1.730193197727203E-001;-3.168152412399650E-003;-2.057934412732720E-003;-4.371446091681719E-003;
2.409333333333334E+009;1.725348234176636E-001;-4.557234700769186E-003;-2.186319557949901E-003;-4.415524657815695E-003;
2.409500000000000E+009;1.718826442956924E-001;-6.060241255909205E-003;-2.266409341245890E-003;-4.219399765133858E-003;
2.409666666666667E+009;1.713330894708633E-001;-7.329231128096581E-003;-2.465879777446389E-003;-4.189888015389442E-003;
2.409833333333334E+009;1.707706749439240E-001;-8.778265677392483E-003;-2.552005928009749E-003;-4.023813642561436E-003;
2.410000000000000E+009;1.704812943935394E-001;-1.035083923488855E-002;-2.824645256623626E-003;-3.933193627744913E-003;
2.410166666666667E+009;1.698950976133347E-001;-1.183473318815231E-002;-2.893229248002172E-003;-3.730767173692584E-003;
2.410333333333334E+009;1.692500710487366E-001;-1.349124778062105E-002;-2.911997027695179E-003;-3.611274762079120E-003;
2.410500000000000E+009;1.688685417175293E-001;-1.522480882704258E-002;-2.942928113043308E-003;-3.701620735228062E-003;
2.410666666666667E+009;1.686473041772842E-001;-1.729968748986721E-002;-3.079014597460628E-003;-3.667200217023492E-003;
2.410833333333334E+009;1.683849096298218E-001;-1.877631060779095E-002;-3.299507312476635E-003;-3.523988649249077E-003;
2.411000000000000E+009;1.681265085935593E-001;-2.066792733967304E-002;-3.334084060043097E-003;-3.442880464717746E-003;
2.411166666666667E+009;1.677786707878113E-001;-2.258486859500408E-002;-3.383188275620341E-003;-3.246896667405963E-003;
2.411333333333334E+009;1.677334457635880E-001;-2.425821125507355E-002;-3.392470069229603E-003;-3.389386925846338E-003;
2.411500000000000E+009;1.677205413579941E-001;-2.639590762555599E-002;-3.489602822810412E-003;-3.307912498712540E-003;
2.411666666666667E+009;1.678723096847534E-001;-2.818677201867104E-002;-3.623637836426497E-003;-3.181020030751824E-003;
2.411833333333334E+009;1.678209006786346E-001;-3.012245707213879E-002;-3.453692886978388E-003;-3.154421225190163E-003;
2.412000000000000E+009;1.680062413215637E-001;-3.184318915009499E-002;-3.760165069252253E-003;-3.032724838703871E-003;
2.412166666666667E+009;1.680969595909119E-001;-3.377160057425499E-002;-3.764426102861762E-003;-3.093209350481629E-003;
2.412333333333334E+009;1.685682088136673E-001;-3.535307198762894E-002;-3.870748449116945E-003;-3.097164444625378E-003;
2.412500000000000E+009;1.686218380928040E-001;-3.737942129373550E-002;-4.107505083084106E-003;-2.996845403686166E-003;
2.412666666666667E+009;1.689944416284561E-001;-3.924233466386795E-002;-4.130033776164055E-003;-2.703689038753510E-003;
2.412833333333334E+009;1.692693382501602E-001;-4.088652506470680E-002;-4.330876749008894E-003;-2.825008472427726E-003;
2.413000000000000E+009;1.698558479547501E-001;-4.243512451648712E-002;-4.499725531786680E-003;-2.689791843295097E-003;
2.413166666666667E+009;1.701800376176834E-001;-4.419668763875961E-002;-4.600050393491983E-003;-2.579978201538324E-003;
2.413333333333334E+009;1.705490946769714E-001;-4.580639675259590E-002;-4.843402188271284E-003;-2.500758040696383E-003;
2.413500000000000E+009;1.710149943828583E-001;-4.717775061726570E-002;-4.902460612356663E-003;-2.229250269010663E-003;
2.413666666666667E+009;1.717126667499542E-001;-4.859396442770958E-002;-5.040922667831183E-003;-2.301589818671346E-003;
2.413833333333334E+009;1.721415519714356E-001;-5.001374334096909E-002;-5.388107150793076E-003;-1.988227711990476E-003;
2.414000000000000E+009;1.725345253944397E-001;-5.124307423830032E-002;-5.529912654310465E-003;-1.879355753771961E-003;
2.414166666666667E+009;1.730809807777405E-001;-5.246223509311676E-002;-5.488259252160788E-003;-1.666806871071458E-003;
2.414333333333334E+009;1.736065894365311E-001;-5.349326878786087E-002;-5.580961704254150E-003;-1.598293543793261E-003;
2.414500000000000E+009;1.742780804634094E-001;-5.448209494352341E-002;-5.656255409121513E-003;-1.279778778553009E-003;
2.414666666666667E+009;1.747214198112488E-001;-5.547701567411423E-002;-5.933805368840694E-003;-9.998811874538660E-004;
2.414833333333334E+009;1.750408858060837E-001;-5.642282590270042E-002;-6.030896212905645E-003;-5.509990733116865E-004;
2.415000000000000E+009;1.754166334867477E-001;-5.713964253664017E-002;-6.018890999257565E-003;-5.497691454365850E-004;
2.415166666666667E+009;1.757886707782745E-001;-5.788846313953400E-002;-6.029780022799969E-003;-4.041381762363017E-004;
2.415333333333334E+009;1.761202216148377E-001;-5.851660668849945E-002;-6.074379663914442E-003;-1.110343437176198E-004;
2.415500000000000E+009;1.764012724161148E-001;-5.899219214916229E-002;-6.209445185959339E-003;2.602828899398446E-004;
2.415666666666667E+009;1.764830499887466E-001;-5.931602790951729E-002;-6.259199231863022E-003;4.340533050708473E-004;
2.415833333333334E+009;1.767413616180420E-001;-5.989064648747444E-002;-6.292143370956183E-003;7.708222256042063E-004;
2.416000000000000E+009;1.766747683286667E-001;-6.023984774947166E-002;-6.261121947318316E-003;1.040536793880165E-003;
2.416166666666667E+009;1.767710298299789E-001;-6.056013330817223E-002;-6.226208526641130E-003;1.254305243492127E-003;
2.416333333333334E+009;1.767370700836182E-001;-6.084882467985153E-002;-6.137882824987173E-003;1.499859266914427E-003;
2.416500000000000E+009;1.765492707490921E-001;-6.119066104292870E-002;-6.094916258007288E-003;1.821333309635520E-003;
2.416666666666667E+009;1.762863397598267E-001;-6.133543699979782E-002;-6.094077602028847E-003;2.265838440507650E-003;
2.416833333333334E+009;1.759775280952454E-001;-6.171933189034462E-002;-5.960122216492891E-003;2.400911878794432E-003;
2.417000000000000E+009;1.753730028867722E-001;-6.197187304496765E-002;-5.913745146244764E-003;2.466419944539666E-003;
2.417166666666667E+009;1.748311072587967E-001;-6.199405714869499E-002;-5.574917886406183E-003;2.845921088010073E-003;
2.417333333333334E+009;1.744320839643478E-001;-6.218053027987480E-002;-5.654546432197094E-003;3.136319806799293E-003;
2.417500000000000E+009;1.736593097448349E-001;-6.270728260278702E-002;-5.354798398911953E-003;3.274869406595826E-003;
2.417666666666667E+009;1.729653775691986E-001;-6.265508383512497E-002;-5.282247904688120E-003;3.569420194253326E-003;
2.417833333333334E+009;1.721101701259613E-001;-6.304403394460678E-002;-5.189897026866674E-003;3.796025877818465E-003;
2.418000000000000E+009;1.711676567792893E-001;-6.348598748445511E-002;-4.903689026832581E-003;4.147610627114773E-003;
2.418166666666667E+009;1.701367497444153E-001;-6.371294707059860E-002;-4.906119313091040E-003;4.193015396595001E-003;
2.418333333333334E+009;1.694047749042511E-001;-6.421395391225815E-002;-4.660995211452246E-003;4.239580594003201E-003;
2.418500000000000E+009;1.682075262069702E-001;-6.464173644781113E-002;-4.244358744472265E-003;4.592204932123423E-003;
2.418666666666667E+009;1.671513468027115E-001;-6.524550169706345E-002;-4.284937866032124E-003;4.649381618946791E-003;
2.418833333333334E+009;1.659045219421387E-001;-6.574866920709610E-002;-3.983971197158098E-003;4.812567494809628E-003;
2.419000000000000E+009;1.646741032600403E-001;-6.635493040084839E-002;-3.744590794667602E-003;4.866479896008968E-003;
2.419166666666667E+009;1.635195612907410E-001;-6.704532355070114E-002;-3.636634675785899E-003;5.065383389592171E-003;
2.419333333333334E+009;1.621607989072800E-001;-6.766001880168915E-002;-3.451055148616433E-003;5.154091864824295E-003;
2.419500000000000E+009;1.611302495002747E-001;-6.860128790140152E-002;-3.077103756368160E-003;5.334714427590370E-003;
2.419666666666667E+009;1.600349396467209E-001;-6.959088146686554E-002;-2.909680129960179E-003;5.432504229247570E-003;
2.419833333333334E+009;1.586578637361527E-001;-7.050351798534393E-002;-2.728878986090422E-003;5.423621740192175E-003;
2.420000000000000E+009;1.575567871332169E-001;-7.162531465291977E-002;-2.563158050179482E-003;5.587477236986160E-003;
2.420166666666667E+009;1.564235687255859E-001;-7.277568429708481E-002;-2.350186929106712E-003;5.666208919137716E-003;
2.420333333333334E+009;1.554354280233383E-001;-7.402503490447998E-002;-2.073663519695401E-003;5.685845389962196E-003;
2.420500000000000E+009;1.544496417045593E-001;-7.515619695186615E-002;-1.873659901320934E-003;5.844305269420147E-003;
2.420666666666667E+009;1.532665938138962E-001;-7.642413675785065E-002;-1.563073485158384E-003;5.674906075000763E-003;
2.420833333333334E+009;1.523625254631043E-001;-7.789117842912674E-002;-1.461535808630288E-003;5.770479328930378E-003;
2.421000000000000E+009;1.513949781656265E-001;-7.948081940412521E-002;-1.113366219215095E-003;5.751017015427351E-003;
2.421166666666667E+009;1.507000923156738E-001;-8.094318956136704E-002;-9.678635396994650E-004;5.949093494564295E-003;
2.421333333333334E+009;1.500894427299500E-001;-8.243442326784134E-002;-5.388040444813669E-004;5.859799217432737E-003;
2.421500000000000E+009;1.492281556129456E-001;-8.401979506015778E-002;-3.202947264071554E-004;5.865480750799179E-003;
2.421666666666667E+009;1.486744731664658E-001;-8.574488759040833E-002;-1.567911240272224E-004;5.930142477154732E-003;
2.421833333333334E+009;1.482061296701431E-001;-8.738255500793457E-002;1.377941080136225E-004;5.730390548706055E-003;
2.422000000000000E+009;1.478243768215179E-001;-8.896486461162567E-002;2.435779460938647E-004;5.837362725287676E-003;
2.422166666666667E+009;1.473909765481949E-001;-9.084223210811615E-002;6.266955169849098E-004;5.624066572636366E-003;
2.422333333333334E+009;1.473834365606308E-001;-9.245935082435608E-002;9.528034133836627E-004;5.673974752426148E-003;
2.422500000000000E+009;1.468056887388229E-001;-9.399957209825516E-002;1.133395475335419E-003;5.435659084469080E-003;
2.422666666666667E+009;1.467881053686142E-001;-9.589704126119614E-002;1.343577518127859E-003;5.419038701802492E-003;
2.422833333333334E+009;1.468028575181961E-001;-9.762237221002579E-002;1.480681123211980E-003;5.303205922245979E-003;
2.423000000000000E+009;1.468628197908402E-001;-9.910852462053299E-002;1.822893624193966E-003;5.115395877510309E-003;
2.423166666666667E+009;1.469494998455048E-001;-1.008406728506088E-001;1.964617986232042E-003;4.959055688232184E-003;
2.423333333333334E+009;1.472884714603424E-001;-1.021755263209343E-001;2.220749855041504E-003;4.930146504193544E-003;
2.423500000000000E+009;1.473011374473572E-001;-1.040000841021538E-001;2.310936106368899E-003;4.623726475983858E-003;
2.423666666666667E+009;1.475255638360977E-001;-1.054977625608444E-001;2.586192917078733E-003;4.607509821653366E-003;
2.423833333333334E+009;1.479390114545822E-001;-1.069656684994698E-001;2.745568286627531E-003;4.428477026522160E-003;
2.424000000000000E+009;1.480703800916672E-001;-1.083029136061668E-001;2.880207030102611E-003;4.122640471905470E-003;
2.424166666666667E+009;1.483788490295410E-001;-1.096608117222786E-001;3.090324811637402E-003;4.097756464034319E-003;
2.424333333333334E+009;1.489521861076355E-001;-1.109284088015556E-001;3.044021315872669E-003;3.779278369620442E-003;
2.424500000000000E+009;1.492702513933182E-001;-1.123352274298668E-001;3.196742618456483E-003;3.644051495939493E-003;
2.424666666666667E+009;1.497523784637451E-001;-1.130321025848389E-001;3.240137128159404E-003;3.446828806772828E-003;
2.424833333333334E+009;1.498324871063232E-001;-1.140992641448975E-001;3.441147506237030E-003;3.305679652839899E-003;
2.425000000000000E+009;1.503312587738037E-001;-1.151317805051804E-001;3.369350917637348E-003;3.032519249245524E-003;
2.425166666666667E+009;1.504807621240616E-001;-1.159106940031052E-001;3.182810032740235E-003;2.824069233611226E-003;
2.425333333333334E+009;1.507672518491745E-001;-1.167298108339310E-001;3.438131883740425E-003;2.703015226870775E-003;
2.425500000000000E+009;1.512276381254196E-001;-1.175056025385857E-001;3.563661361113191E-003;2.413013251498342E-003;
2.425666666666667E+009;1.512982100248337E-001;-1.180882453918457E-001;3.533450188115239E-003;2.334872959181666E-003;
2.425833333333334E+009;1.514502465724945E-001;-1.185163855552673E-001;3.545089624822140E-003;2.038883278146386E-003;
2.426000000000000E+009;1.516348719596863E-001;-1.192109659314156E-001;3.545162733644247E-003;1.891464111395180E-003;
2.426166666666667E+009;1.519306302070618E-001;-1.195900365710259E-001;3.568830201402307E-003;1.818133518099785E-003;
2.426333333333334E+009;1.518179327249527E-001;-1.199621111154556E-001;3.414466045796871E-003;1.657829270698130E-003;
2.426500000000000E+009;1.517603993415833E-001;-1.202841103076935E-001;3.437248524278402E-003;1.401615561917424E-003;
2.426666666666667E+009;1.518528908491135E-001;-1.203736588358879E-001;3.490341128781438E-003;1.232081442140043E-003;
2.426833333333334E+009;1.514934450387955E-001;-1.206592470407486E-001;3.418450942263007E-003;1.154420431703329E-003;
2.427000000000000E+009;1.512919962406158E-001;-1.208481565117836E-001;3.439055057242513E-003;1.073204330168665E-003;
2.427166666666667E+009;1.509607285261154E-001;-1.208688542246819E-001;3.234339645132422E-003;8.143647573888302E-004;
2.427333333333334E+009;1.503438949584961E-001;-1.210690662264824E-001;3.444724250584841E-003;8.091600611805916E-004;
2.427500000000000E+009;1.498491615056992E-001;-1.212136223912239E-001;3.217623103410006E-003;7.029272965155542E-004;
2.427666666666667E+009;1.492590606212616E-001;-1.214161366224289E-001;3.174673765897751E-003;6.174316513352096E-004;
