# Version 1.00
#
freq[Hz];re:Trc1_S11;im:Trc1_S11;re:Trc2_S21;im:Trc2_S21;
2.400000000000000E+009;1.554485112428665E-001;1.106583699584007E-001;9.391743224114180E-004;4.522739443928003E-003;
2.400166666666667E+009;1.550343036651611E-001;1.083074137568474E-001;9.533962584100664E-004;4.444083198904991E-003;
2.400333333333334E+009;1.547858566045761E-001;1.061038374900818E-001;1.037470530718565E-003;4.479210358113051E-003;
2.400500000000000E+009;1.543382704257965E-001;1.035894900560379E-001;1.119747059419751E-003;4.481212701648474E-003;
2.400666666666667E+009;1.541571915149689E-001;1.012242287397385E-001;1.163196284323931E-003;4.352077841758728E-003;
2.400833333333334E+009;1.538878232240677E-001;9.833342581987381E-002;1.315271947532892E-003;4.371060524135828E-003;
2.401000000000000E+009;1.537114083766937E-001;9.543182700872421E-002;1.379605731926858E-003;4.294492769986391E-003;
2.401166666666667E+009;1.535728573799133E-001;9.255846589803696E-002;1.499087782576680E-003;4.406116437166929E-003;
2.401333333333334E+009;1.536931544542313E-001;8.981602638959885E-002;1.766389003023505E-003;4.380047321319580E-003;
2.401500000000000E+009;1.539868265390396E-001;8.644320070743561E-002;1.738224527798593E-003;4.346944857388735E-003;
2.401666666666667E+009;1.540602594614029E-001;8.372032642364502E-002;1.955356914550066E-003;4.239607602357864E-003;
2.401833333333334E+009;1.542478650808334E-001;8.061373978853226E-002;2.181416144594550E-003;4.391028545796871E-003;
2.402000000000000E+009;1.549472361803055E-001;7.768385857343674E-002;2.235945779830217E-003;4.275516606867313E-003;
2.402166666666667E+009;1.555405110120773E-001;7.498649507761002E-002;2.567028626799583E-003;4.224667325615883E-003;
2.402333333333334E+009;1.562435775995255E-001;7.199855148792267E-002;2.849536947906017E-003;4.132202826440334E-003;
2.402500000000000E+009;1.573737859725952E-001;6.932169198989868E-002;3.018039744347334E-003;4.103996325284243E-003;
2.402666666666667E+009;1.583153903484345E-001;6.669948995113373E-002;3.266026498749852E-003;3.890362568199635E-003;
2.402833333333334E+009;1.595353037118912E-001;6.397141516208649E-002;3.525883425027132E-003;3.904992248862982E-003;
2.403000000000000E+009;1.609653234481812E-001;6.132812425494194E-002;3.867679275572300E-003;3.657875582575798E-003;
2.403166666666667E+009;1.626110374927521E-001;5.893578380346298E-002;4.077591467648745E-003;3.360241884365678E-003;
2.403333333333334E+009;1.639856696128845E-001;5.654289573431015E-002;4.410473164170981E-003;3.090407466515899E-003;
2.403500000000000E+009;1.658343374729157E-001;5.423745140433312E-002;4.491172730922699E-003;2.727876417338848E-003;
2.403666666666667E+009;1.674451529979706E-001;5.205786600708962E-002;4.547949414700270E-003;2.453416585922241E-003;
2.403833333333334E+009;1.693941205739975E-001;5.029000714421272E-002;4.513894207775593E-003;1.924891024827957E-003;
2.404000000000000E+009;1.709042191505432E-001;4.799336194992065E-002;4.457194823771715E-003;1.767295878380537E-003;
2.404166666666667E+009;1.730255931615830E-001;4.647227749228478E-002;4.472875967621803E-003;1.255022361874580E-003;
2.404333333333334E+009;1.747015565633774E-001;4.470841959118843E-002;4.324790090322495E-003;1.052491948939860E-003;
2.404500000000000E+009;1.766508221626282E-001;4.320380464196205E-002;4.374457057565451E-003;6.143787177279592E-004;
2.404666666666667E+009;1.783150583505631E-001;4.181397333741188E-002;4.046994261443615E-003;3.861692093778402E-004;
2.404833333333334E+009;1.802643686532974E-001;4.069350287318230E-002;4.007523413747549E-003;3.265992854721844E-004;
2.405000000000000E+009;1.819173842668533E-001;3.993327543139458E-002;3.705327399075031E-003;8.828824502415955E-005;
2.405166666666667E+009;1.836694180965424E-001;3.917406871914864E-002;3.692921251058579E-003;7.238347461679950E-005;
2.405333333333334E+009;1.853921711444855E-001;3.862236812710762E-002;3.471194533631206E-003;2.335174031031784E-006;
2.405500000000000E+009;1.871072947978973E-001;3.802809864282608E-002;3.197666257619858E-003;-1.519745273981243E-004;
2.405666666666667E+009;1.886415034532547E-001;3.783185407519341E-002;3.233287483453751E-003;-1.566145510878414E-004;
2.405833333333334E+009;1.901209801435471E-001;3.753125295042992E-002;3.291798522695899E-003;-2.294294536113739E-004;
2.406000000000000E+009;1.913444250822067E-001;3.735904395580292E-002;3.234268398955464E-003;-2.382571692578495E-004;
2.406166666666667E+009;1.927205622196198E-001;3.734399005770683E-002;3.057181835174561E-003;-3.572293790057302E-004;
2.406333333333334E+009;1.938918977975845E-001;3.746754303574562E-002;3.060854971408844E-003;-3.845379978884012E-004;
2.406500000000000E+009;1.949312090873718E-001;3.755754604935646E-002;3.002226585522294E-003;-5.051924381405115E-004;
2.406666666666667E+009;1.958622336387634E-001;3.779858723282814E-002;2.811038866639137E-003;-6.733083282597363E-004;
2.406833333333334E+009;1.966350823640823E-001;3.799122199416161E-002;2.707175211980939E-003;-7.056255126371980E-004;
2.407000000000000E+009;1.970546394586563E-001;3.847559913992882E-002;2.723356708884239E-003;-7.769833900965750E-004;
2.407166666666667E+009;1.977725625038147E-001;3.838537260890007E-002;2.513282466679812E-003;-7.297357660718262E-004;
2.407333333333334E+009;1.979136466979981E-001;3.882064670324326E-002;2.354117808863521E-003;-9.000752470456064E-004;
2.407500000000000E+009;1.980210840702057E-001;3.931592032313347E-002;2.069775713607669E-003;-8.932386408559978E-004;
2.407666666666667E+009;1.983168274164200E-001;3.938258811831474E-002;2.114476170390844E-003;-9.678671485744417E-004;
2.407833333333334E+009;1.978620737791061E-001;3.954269364476204E-002;2.007530536502600E-003;-1.043102703988552E-003;
2.408000000000000E+009;1.979273855686188E-001;3.974511474370956E-002;1.799307414330542E-003;-9.927151259034872E-004;
2.408166666666667E+009;1.973159015178680E-001;3.968346118927002E-002;1.741111162118614E-003;-7.850240217521787E-004;
2.408333333333334E+009;1.969499886035919E-001;3.971822187304497E-002;1.551133464090526E-003;-6.427181069739163E-004;
2.408500000000000E+009;1.962986439466476E-001;3.958938270807266E-002;1.630304381251335E-003;-5.500165862031281E-004;
2.408666666666667E+009;1.957259774208069E-001;3.935128077864647E-002;1.315316068939865E-003;-4.512576560955495E-004;
2.408833333333334E+009;1.948792487382889E-001;3.899250552058220E-002;1.520182355307043E-003;4.269661440048367E-005;
2.409000000000000E+009;1.940465122461319E-001;3.835888579487801E-002;1.639056135900319E-003;-8.550589554943144E-004;
2.409166666666667E+009;1.929475069046021E-001;3.768005222082138E-002;9.872663067653775E-004;-7.644190918654203E-005;
2.409333333333334E+009;1.919222176074982E-001;3.701560571789742E-002;9.998258901759982E-004;2.576015540398657E-004;
2.409500000000000E+009;1.906899511814117E-001;3.608462959527969E-002;1.738811610266566E-003;1.270323264179751E-004;
2.409666666666667E+009;1.896465122699738E-001;3.488705679774284E-002;1.653282670304179E-003;-1.817803276935592E-004;
2.409833333333334E+009;1.882908493280411E-001;3.367435559630394E-002;1.576357171870768E-003;5.345406243577600E-004;
2.410000000000000E+009;1.871960759162903E-001;3.230079263448715E-002;1.833115820772946E-003;1.863107463577762E-004;
2.410166666666667E+009;1.858543008565903E-001;3.061925247311592E-002;1.925057964399457E-003;2.438612427795306E-004;
2.410333333333334E+009;1.848429590463638E-001;2.905575372278690E-002;2.101213205605745E-003;2.092011563945562E-004;
2.410500000000000E+009;1.834293603897095E-001;2.725071087479591E-002;2.221827162429690E-003;3.020809672307223E-004;
2.410666666666667E+009;1.825202256441116E-001;2.509017474949360E-002;2.401985228061676E-003;-1.895915738714393E-005;
2.410833333333334E+009;1.814108192920685E-001;2.328594028949738E-002;2.514042658731341E-003;8.059489482548088E-005;
2.411000000000000E+009;1.806948035955429E-001;2.077401988208294E-002;2.486642682924867E-003;1.624410651857033E-004;
2.411166666666667E+009;1.796224266290665E-001;1.866959035396576E-002;2.462350530549884E-003;6.078096339479089E-005;
2.411333333333334E+009;1.789160668849945E-001;1.622389443218708E-002;2.412245143204927E-003;6.088739610277116E-005;
2.411500000000000E+009;1.782210916280747E-001;1.376244891434908E-002;2.669016597792506E-003;3.852317604469135E-005;
2.411666666666667E+009;1.780531257390976E-001;1.144788134843111E-002;2.721455646678805E-003;-2.542988113418687E-005;
2.411833333333334E+009;1.773638874292374E-001;8.908976800739765E-003;2.796157728880644E-003;3.396967804292217E-005;
2.412000000000000E+009;1.771884411573410E-001;6.216964218765497E-003;3.025796497240663E-003;-1.183189160656184E-004;
2.412166666666667E+009;1.771792322397232E-001;3.715448314324021E-003;2.997215371578932E-003;-6.265030970098451E-005;
2.412333333333334E+009;1.771163195371628E-001;9.812957141548395E-004;3.279952099546790E-003;-1.560971286380664E-004;
2.412500000000000E+009;1.774644106626511E-001;-1.662807073444128E-003;3.447340335696936E-003;-1.668352488195524E-004;
2.412666666666667E+009;1.779464632272720E-001;-4.215199034661055E-003;3.499309765174985E-003;-2.755215973593295E-004;
2.412833333333334E+009;1.786207407712936E-001;-6.771128159016371E-003;3.639008151367307E-003;-4.647497262340039E-004;
2.413000000000000E+009;1.791993379592896E-001;-9.416460990905762E-003;3.969816956669092E-003;-5.411893944256008E-004;
2.413166666666667E+009;1.800129264593124E-001;-1.190332509577274E-002;3.999085631221533E-003;-9.382408461533487E-004;
2.413333333333334E+009;1.809703707695007E-001;-1.458191312849522E-002;4.033307079225779E-003;-1.229536137543619E-003;
2.413500000000000E+009;1.817785054445267E-001;-1.700999215245247E-002;4.368063062429428E-003;-1.362202339805663E-003;
2.413666666666667E+009;1.830296516418457E-001;-1.951727829873562E-002;4.273618571460247E-003;-1.708142226561904E-003;
2.413833333333334E+009;1.841394454240799E-001;-2.181271836161614E-002;4.526352044194937E-003;-2.190367085859180E-003;
2.414000000000000E+009;1.855329871177673E-001;-2.393869124352932E-002;4.364172462373972E-003;-2.540488960221410E-003;
2.414166666666667E+009;1.868059635162354E-001;-2.605180069804192E-002;4.455275367945433E-003;-2.840613247826695E-003;
2.414333333333334E+009;1.880612671375275E-001;-2.820980362594128E-002;4.228826146572828E-003;-3.322788979858160E-003;
2.414500000000000E+009;1.894659996032715E-001;-2.992483973503113E-002;4.116907715797424E-003;-3.651086473837495E-003;
2.414666666666667E+009;1.907985210418701E-001;-3.161554038524628E-002;3.863693913444877E-003;-3.893044078722596E-003;
2.414833333333334E+009;1.921900957822800E-001;-3.327310085296631E-002;3.626799676567316E-003;-4.192275926470757E-003;
2.415000000000000E+009;1.934529691934586E-001;-3.471470251679421E-002;3.400710178539157E-003;-4.339550156146288E-003;
2.415166666666667E+009;1.950134038925171E-001;-3.587241470813751E-002;3.115913365036249E-003;-4.640113562345505E-003;
2.415333333333334E+009;1.964611560106278E-001;-3.700600937008858E-002;2.716862130910158E-003;-4.787764977663755E-003;
2.415500000000000E+009;1.978523582220078E-001;-3.799802437424660E-002;2.539287554100156E-003;-4.925400950014591E-003;
2.415666666666667E+009;1.991804242134094E-001;-3.896373882889748E-002;2.205911092460156E-003;-5.065798293799162E-003;
2.415833333333334E+009;2.003823071718216E-001;-3.966290131211281E-002;2.007688395678997E-003;-5.167176481336355E-003;
2.416000000000000E+009;2.013824284076691E-001;-4.037597402930260E-002;1.681732130236924E-003;-5.260601639747620E-003;
2.416166666666667E+009;2.024874985218048E-001;-4.106264933943749E-002;1.403683680109680E-003;-5.276324227452278E-003;
2.416333333333334E+009;2.032953500747681E-001;-4.134029150009155E-002;1.022974611259997E-003;-5.530455615371466E-003;
2.416500000000000E+009;2.040366679430008E-001;-4.170874506235123E-002;7.830046233721077E-004;-5.526710301637650E-003;
2.416666666666667E+009;2.046790421009064E-001;-4.194188863039017E-002;4.539643996395171E-004;-5.493016447871923E-003;
2.416833333333334E+009;2.051139622926712E-001;-4.199270159006119E-002;4.084255851921625E-005;-5.541601218283176E-003;
2.417000000000000E+009;2.056056410074234E-001;-4.212941601872444E-002;-2.358187339268625E-004;-5.554629489779472E-003;
2.417166666666667E+009;2.056027352809906E-001;-4.192477092146874E-002;-6.396071403287351E-004;-5.567488726228476E-003;
2.417333333333334E+009;2.055232226848602E-001;-4.160074517130852E-002;-8.728792890906334E-004;-5.470455624163151E-003;
2.417500000000000E+009;2.055343687534332E-001;-4.158522933721542E-002;-1.230378635227680E-003;-5.413541570305824E-003;
2.417666666666667E+009;2.052629142999649E-001;-4.122789204120636E-002;-1.505663269199431E-003;-5.178199615329504E-003;
2.417833333333334E+009;2.050615102052689E-001;-4.092019051313400E-002;-1.772881485521793E-003;-5.194077733904123E-003;
2.418000000000000E+009;2.045691013336182E-001;-4.049795866012573E-002;-1.946873730048537E-003;-5.055905785411596E-003;
2.418166666666667E+009;2.039177566766739E-001;-4.027702659368515E-002;-2.246252028271556E-003;-4.892325960099697E-003;
2.418333333333334E+009;2.030788660049439E-001;-3.987165912985802E-002;-2.515204716473818E-003;-4.522405099123716E-003;
2.418500000000000E+009;2.022020071744919E-001;-3.966616466641426E-002;-2.672950504347682E-003;-4.320177249610424E-003;
2.418666666666667E+009;2.012921273708344E-001;-3.937009721994400E-002;-2.798927715048194E-003;-4.061355255544186E-003;
2.418833333333334E+009;2.001204639673233E-001;-3.933995217084885E-002;-2.936797449365258E-003;-3.932417836040258E-003;
2.419000000000000E+009;1.989989876747131E-001;-3.932259604334831E-002;-3.044585697352886E-003;-3.679735586047173E-003;
2.419166666666667E+009;1.976523250341415E-001;-3.941855207085609E-002;-3.212676383554936E-003;-3.364920616149902E-003;
2.419333333333334E+009;1.961603611707687E-001;-3.957113996148109E-002;-3.212181385606527E-003;-3.038647351786494E-003;
2.419500000000000E+009;1.947020292282105E-001;-3.990774974226952E-002;-3.453420475125313E-003;-2.848198404535651E-003;
2.419666666666667E+009;1.930338591337204E-001;-4.029773175716400E-002;-3.172625787556171E-003;-2.579921856522560E-003;
2.419833333333334E+009;1.912965774536133E-001;-4.099198430776596E-002;-3.151349723339081E-003;-2.487817313522100E-003;
2.420000000000000E+009;1.896193176507950E-001;-4.150094091892242E-002;-3.172170370817184E-003;-2.107657259330154E-003;
2.420166666666667E+009;1.879621893167496E-001;-4.248312488198280E-002;-3.139378968626261E-003;-2.055263612419367E-003;
2.420333333333334E+009;1.860634535551071E-001;-4.338156059384346E-002;-2.991577610373497E-003;-1.872832421213388E-003;
2.420500000000000E+009;1.842435896396637E-001;-4.459357261657715E-002;-2.949947491288185E-003;-1.742322463542223E-003;
2.420666666666667E+009;1.825544238090515E-001;-4.554602876305580E-002;-2.900724764913321E-003;-1.660004141740501E-003;
2.420833333333334E+009;1.808128952980042E-001;-4.698790609836578E-002;-2.823584945872426E-003;-1.582083408720791E-003;
2.421000000000000E+009;1.789939701557159E-001;-4.862906783819199E-002;-2.761843381449580E-003;-1.439807470887899E-003;
2.421166666666667E+009;1.773901134729385E-001;-5.028409138321877E-002;-2.557894913479686E-003;-1.415981212630868E-003;
2.421333333333334E+009;1.754457950592041E-001;-5.173290520906448E-002;-2.540108514949679E-003;-1.379563705995679E-003;
2.421500000000000E+009;1.741538196802139E-001;-5.381996184587479E-002;-2.574812853708863E-003;-1.327746314927936E-003;
2.421666666666667E+009;1.725718528032303E-001;-5.567587167024612E-002;-2.454582601785660E-003;-1.487964997068048E-003;
2.421833333333334E+009;1.711637526750565E-001;-5.768506228923798E-002;-2.522380324080586E-003;-1.257536234334111E-003;
2.422000000000000E+009;1.699110865592957E-001;-5.962565168738365E-002;-2.438695635646582E-003;-1.357044326141477E-003;
2.422166666666667E+009;1.688068062067032E-001;-6.187327951192856E-002;-2.342196879908443E-003;-1.260355231352150E-003;
2.422333333333334E+009;1.675934344530106E-001;-6.402945518493652E-002;-2.458970760926604E-003;-1.261410070583224E-003;
2.422500000000000E+009;1.665901392698288E-001;-6.635398417711258E-002;-2.522870665416122E-003;-1.201679115183651E-003;
2.422666666666667E+009;1.656954437494278E-001;-6.847526133060455E-002;-2.485655713826418E-003;-1.084420364350081E-003;
2.422833333333334E+009;1.651315540075302E-001;-7.071580737829208E-002;-2.634605392813683E-003;-1.115791965276003E-003;
2.423000000000000E+009;1.645002365112305E-001;-7.314125448465347E-002;-2.549558645114303E-003;-1.100412104278803E-003;
2.423166666666667E+009;1.639650315046310E-001;-7.521127164363861E-002;-2.515266183763742E-003;-1.053415355272591E-003;
2.423333333333334E+009;1.636149883270264E-001;-7.749892771244049E-002;-2.405655570328236E-003;-9.761778637766838E-004;
2.423500000000000E+009;1.634877920150757E-001;-7.951531559228897E-002;-2.518377965316176E-003;-9.947114158421755E-004;
2.423666666666667E+009;1.635243594646454E-001;-8.181367069482803E-002;-2.456284826621413E-003;-7.394042913801968E-004;
2.423833333333334E+009;1.634844094514847E-001;-8.366029709577560E-002;-2.440996235236526E-003;-8.127595647238195E-004;
2.424000000000000E+009;1.634847819805145E-001;-8.580282330513001E-002;-2.414574380964041E-003;-8.502034470438957E-004;
2.424166666666667E+009;1.635509133338928E-001;-8.770658075809479E-002;-2.331105992197990E-003;-7.699663983657956E-004;
2.424333333333334E+009;1.638824492692947E-001;-8.960408717393875E-002;-2.454584464430809E-003;-8.279835456050932E-004;
2.424500000000000E+009;1.643404960632324E-001;-9.156286716461182E-002;-2.358500845730305E-003;-9.110333048738539E-004;
2.424666666666667E+009;1.646261066198349E-001;-9.310831129550934E-002;-2.415977185592055E-003;-9.694233303889632E-004;
2.424833333333334E+009;1.651859283447266E-001;-9.485257416963577E-002;-2.427657367661595E-003;-8.708867826499045E-004;
2.425000000000000E+009;1.657045632600784E-001;-9.608762711286545E-002;-2.496684901416302E-003;-9.865059982985258E-004;
2.425166666666667E+009;1.662316471338272E-001;-9.740617871284485E-002;-2.665101550519466E-003;-9.978573070839047E-004;
2.425333333333334E+009;1.667455434799194E-001;-9.856250882148743E-002;-2.957456512376666E-003;-8.582688751630485E-004;
2.425500000000000E+009;1.672749370336533E-001;-9.991919249296188E-002;-2.952423878014088E-003;-9.889986831694841E-004;
2.425666666666667E+009;1.678225547075272E-001;-1.005726754665375E-001;-3.078375477343798E-003;-7.979460060596466E-004;
2.425833333333334E+009;1.684160232543945E-001;-1.016335785388947E-001;-3.280903445556760E-003;-7.247756584547460E-004;
2.426000000000000E+009;1.689680516719818E-001;-1.021824628114700E-001;-3.364359727129340E-003;-6.662622909061611E-004;
2.426166666666667E+009;1.696519553661346E-001;-1.028264611959457E-001;-3.420529887080193E-003;-5.293658468872309E-004;
2.426333333333334E+009;1.699861139059067E-001;-1.033494025468826E-001;-3.631013911217451E-003;-4.604955320246518E-004;
2.426500000000000E+009;1.705573350191116E-001;-1.038324087858200E-001;-3.604233730584383E-003;-2.344604145037010E-004;
2.426666666666667E+009;1.710939556360245E-001;-1.041487157344818E-001;-3.775301389396191E-003;9.951729589374736E-005;
2.426833333333334E+009;1.714872866868973E-001;-1.043654531240463E-001;-3.881019772961736E-003;7.913399167591706E-005;
2.427000000000000E+009;1.716588884592056E-001;-1.045461222529411E-001;-3.665692638605833E-003;3.997173625975847E-004;
2.427166666666667E+009;1.720052361488342E-001;-1.045981869101524E-001;-3.663828363642097E-003;4.585551796481013E-004;
2.427333333333334E+009;1.722169518470764E-001;-1.047537028789520E-001;-3.775633173063397E-003;6.178820622153580E-004;
2.427500000000000E+009;1.720549911260605E-001;-1.048838645219803E-001;-3.595724236220121E-003;8.532780339010060E-004;
2.427666666666667E+009;1.720224767923355E-001;-1.048204004764557E-001;-3.679506946355104E-003;8.305924129672349E-004;
