# Version 1.00
#
freq[Hz];re:Trc1_S11;im:Trc1_S11;re:Trc2_S21;im:Trc2_S21;
2.400000000000000E+009;1.553547680377960E-001;1.106950938701630E-001;1.040944713167846E-003;4.572595935314894E-003;
2.400166666666667E+009;1.548727601766586E-001;1.084467172622681E-001;1.043016440235078E-003;4.468549508601427E-003;
2.400333333333334E+009;1.545419096946716E-001;1.061686426401138E-001;1.186847803182900E-003;4.370551090687513E-003;
2.400500000000000E+009;1.541862338781357E-001;1.037152856588364E-001;1.330594415776432E-003;4.367624875158072E-003;
2.400666666666667E+009;1.539110392332077E-001;1.011031121015549E-001;1.337366993539035E-003;4.050409421324730E-003;
2.400833333333334E+009;1.536473631858826E-001;9.819471836090088E-002;1.392517006024718E-003;4.275719169527292E-003;
2.401000000000000E+009;1.536338329315186E-001;9.530162811279297E-002;1.702986308373511E-003;4.246491007506847E-003;
2.401166666666667E+009;1.535153836011887E-001;9.258496761322022E-002;1.763026113621891E-003;4.273305181413889E-003;
2.401333333333334E+009;1.535846590995789E-001;8.972743153572083E-002;1.663480186834931E-003;4.168211482465267E-003;
2.401500000000000E+009;1.536954045295715E-001;8.665185421705246E-002;1.983827678486705E-003;4.101464524865151E-003;
2.401666666666667E+009;1.540381312370300E-001;8.353168517351151E-002;2.123291837051511E-003;4.097593482583761E-003;
2.401833333333334E+009;1.543539613485336E-001;8.072265982627869E-002;2.231209771707654E-003;4.236403387039900E-003;
2.402000000000000E+009;1.548057049512863E-001;7.774861901998520E-002;2.473876578733325E-003;4.200400784611702E-003;
2.402166666666667E+009;1.555207669734955E-001;7.496143877506256E-002;2.661411883309484E-003;4.090569447726011E-003;
2.402333333333334E+009;1.564509570598602E-001;7.197173684835434E-002;2.841210924088955E-003;3.998553380370140E-003;
2.402500000000000E+009;1.571639478206635E-001;6.938944756984711E-002;3.071468090638518E-003;3.898952854797244E-003;
2.402666666666667E+009;1.582112461328507E-001;6.673372536897659E-002;3.334716428071261E-003;3.817254211753607E-003;
2.402833333333334E+009;1.596272289752960E-001;6.393853574991226E-002;3.723474685102701E-003;3.779693273827434E-003;
2.403000000000000E+009;1.607415378093720E-001;6.134793534874916E-002;3.841042751446366E-003;3.539094002917409E-003;
2.403166666666667E+009;1.626249402761459E-001;5.902601778507233E-002;4.001574590802193E-003;3.339429153129458E-003;
2.403333333333334E+009;1.641131639480591E-001;5.652864649891853E-002;4.392738454043865E-003;3.008226631209254E-003;
2.403500000000000E+009;1.658781170845032E-001;5.437979102134705E-002;4.357666242867708E-003;2.614173572510481E-003;
2.403666666666667E+009;1.675774008035660E-001;5.208599939942360E-002;4.607966635376215E-003;2.191102365031838E-003;
2.403833333333334E+009;1.693927049636841E-001;5.011374875903130E-002;4.705848637968302E-003;1.899480004794896E-003;
2.404000000000000E+009;1.710565388202667E-001;4.806280508637428E-002;4.514495842158794E-003;1.433725119568408E-003;
2.404166666666667E+009;1.730288714170456E-001;4.649448022246361E-002;4.743893165141344E-003;1.067121629603207E-003;
2.404333333333334E+009;1.748389005661011E-001;4.470986872911453E-002;4.450007341802120E-003;9.235115139745176E-004;
2.404500000000000E+009;1.766390353441238E-001;4.313001409173012E-002;4.407023079693317E-003;4.550521553028375E-004;
2.404666666666667E+009;1.784193217754364E-001;4.184319451451302E-002;4.278378095477819E-003;2.845223352778703E-004;
2.404833333333334E+009;1.802930831909180E-001;4.070829972624779E-002;4.012980032712221E-003;3.726546856341884E-005;
2.405000000000000E+009;1.821266710758209E-001;3.997388854622841E-002;3.948627039790154E-003;9.812282951315865E-005;
2.405166666666667E+009;1.838140189647675E-001;3.904815018177033E-002;3.606037702411413E-003;-1.217833869304741E-005;
2.405333333333334E+009;1.854257732629776E-001;3.857617080211639E-002;3.591487649828196E-003;-3.565940278349444E-005;
2.405500000000000E+009;1.870202869176865E-001;3.811936452984810E-002;3.420264460146427E-003;-3.039144503418356E-004;
2.405666666666667E+009;1.885033994913101E-001;3.774458542466164E-002;3.326375735923648E-003;-3.350111364852637E-004;
2.405833333333334E+009;1.901875734329224E-001;3.743385151028633E-002;3.273241454735398E-003;-4.399241297505796E-004;
2.406000000000000E+009;1.915219724178314E-001;3.739909827709198E-002;3.129457589238882E-003;-4.334836849011481E-004;
2.406166666666667E+009;1.927090138196945E-001;3.729131445288658E-002;3.179046325385571E-003;-5.053253262303770E-004;
2.406333333333334E+009;1.938174515962601E-001;3.749025613069534E-002;2.974236151203513E-003;-5.840386147610843E-004;
2.406500000000000E+009;1.948427706956863E-001;3.760613873600960E-002;2.928818576037884E-003;-5.720546469092369E-004;
2.406666666666667E+009;1.958374232053757E-001;3.765957430005074E-002;2.782842610031366E-003;-7.476676837541163E-004;
2.406833333333334E+009;1.966606676578522E-001;3.788066282868385E-002;2.743536839261651E-003;-9.661455405876041E-004;
2.407000000000000E+009;1.970944553613663E-001;3.856422752141953E-002;2.561937319114804E-003;-1.050867023877800E-003;
2.407166666666667E+009;1.977666020393372E-001;3.837631642818451E-002;2.507054246962071E-003;-1.029596431180835E-003;
2.407333333333334E+009;1.979218423366547E-001;3.895362839102745E-002;2.304157009348273E-003;-1.116904546506703E-003;
2.407500000000000E+009;1.980562210083008E-001;3.928407281637192E-002;2.315990626811981E-003;-9.550115792080760E-004;
2.407666666666667E+009;1.981959640979767E-001;3.944577276706696E-002;2.050013979896903E-003;-1.038617687299848E-003;
2.407833333333334E+009;1.979731470346451E-001;3.971065953373909E-002;1.951764570549130E-003;-1.007989980280399E-003;
2.408000000000000E+009;1.978828758001328E-001;3.982199728488922E-002;1.707760617136955E-003;-8.257022709585726E-004;
2.408166666666667E+009;1.975229829549789E-001;3.991595655679703E-002;1.581550808623433E-003;-8.302757050842047E-004;
2.408333333333334E+009;1.970544904470444E-001;3.962499275803566E-002;1.527330139651895E-003;-7.275622338056564E-004;
2.408500000000000E+009;1.963340938091278E-001;3.974695131182671E-002;1.519051031209528E-003;-7.279138662852347E-004;
2.408666666666667E+009;1.956457644701004E-001;3.953787311911583E-002;1.390798832289875E-003;-5.395387415774167E-004;
2.408833333333334E+009;1.948874592781067E-001;3.923442214727402E-002;1.278086565434933E-003;-3.776565426960588E-004;
2.409000000000000E+009;1.940604746341705E-001;3.855378180742264E-002;1.438970910385251E-003;-2.463774289935827E-004;
2.409166666666667E+009;1.929763704538345E-001;3.797092288732529E-002;1.415918464772403E-003;-1.255107927136123E-004;
2.409333333333334E+009;1.919012963771820E-001;3.714065253734589E-002;1.483221654780209E-003;-3.752512930077501E-005;
2.409500000000000E+009;1.908155977725983E-001;3.627573326230049E-002;1.649356796406210E-003;6.699470395687968E-005;
2.409666666666667E+009;1.897038221359253E-001;3.487078845500946E-002;1.671067788265646E-003;1.556831557536498E-004;
2.409833333333334E+009;1.883774250745773E-001;3.376791253685951E-002;1.774288713932037E-003;1.332866522716358E-004;
2.410000000000000E+009;1.871806979179382E-001;3.241108357906342E-002;1.954190898686647E-003;1.188150854432024E-004;
2.410166666666667E+009;1.859387010335922E-001;3.073902986943722E-002;1.921309041790664E-003;1.128860385506414E-004;
2.410333333333334E+009;1.848705410957336E-001;2.925060689449310E-002;2.179227536544204E-003;1.319295552093536E-004;
2.410500000000000E+009;1.835590600967407E-001;2.743105776607990E-002;2.142474288120866E-003;1.498140954936389E-005;
2.410666666666667E+009;1.824923157691956E-001;2.522414177656174E-002;2.274734666571021E-003;4.352868927526288E-005;
2.410833333333334E+009;1.816111505031586E-001;2.313190698623657E-002;2.405490726232529E-003;7.534003088949248E-005;
2.411000000000000E+009;1.805643737316132E-001;2.087989635765553E-002;2.384996972978115E-003;1.785813583410345E-005;
2.411166666666667E+009;1.797444522380829E-001;1.882002316415310E-002;2.426994964480400E-003;-9.597988537279889E-005;
2.411333333333334E+009;1.788506060838699E-001;1.625590212643147E-002;2.565133851021528E-003;-8.034794882405549E-005;
2.411500000000000E+009;1.781876236200333E-001;1.369393989443779E-002;2.572213765233755E-003;2.490997530912864E-006;
2.411666666666667E+009;1.778666973114014E-001;1.130227837711573E-002;2.653417643159628E-003;-9.133742423728108E-005;
2.411833333333334E+009;1.774138659238815E-001;8.956092409789562E-003;2.677137963473797E-003;-1.880883210105822E-004;
2.412000000000000E+009;1.771855950355530E-001;6.043698173016310E-003;2.828842727467418E-003;-2.142134144378360E-005;
2.412166666666667E+009;1.772356033325195E-001;3.753639524802566E-003;3.052299609407783E-003;-1.337285066256300E-004;
2.412333333333334E+009;1.771598309278488E-001;1.063156290911138E-003;3.267151769250631E-003;-2.938307879958302E-004;
2.412500000000000E+009;1.775174736976624E-001;-1.586472615599632E-003;3.225582884624600E-003;-3.488791699055582E-004;
2.412666666666667E+009;1.778610348701477E-001;-4.270084667950869E-003;3.408251097425818E-003;-4.205746809020639E-004;
2.412833333333334E+009;1.783813238143921E-001;-6.805364973843098E-003;3.650780068710446E-003;-4.708207852672786E-004;
2.413000000000000E+009;1.792035698890686E-001;-9.566669352352619E-003;3.740109037607908E-003;-6.091662216931582E-004;
2.413166666666667E+009;1.798936426639557E-001;-1.180193014442921E-002;3.864058526232839E-003;-8.917056256905198E-004;
2.413333333333334E+009;1.807825416326523E-001;-1.454968843609095E-002;4.107888322323561E-003;-1.063597504980862E-003;
2.413500000000000E+009;1.817365437746048E-001;-1.699388585984707E-002;4.103629384189844E-003;-1.472829608246684E-003;
2.413666666666667E+009;1.829942613840103E-001;-1.934018358588219E-002;4.293175879865885E-003;-1.759523525834084E-003;
2.413833333333334E+009;1.841343790292740E-001;-2.159285731613636E-002;4.305803682655096E-003;-2.118770265951753E-003;
2.414000000000000E+009;1.852946728467941E-001;-2.390011399984360E-002;4.294435493648052E-003;-2.477969741448760E-003;
2.414166666666667E+009;1.867776364088059E-001;-2.597612701356411E-002;4.222639836370945E-003;-2.815332496538758E-003;
2.414333333333334E+009;1.880951523780823E-001;-2.811038307845593E-002;4.153970163315535E-003;-3.219959093257785E-003;
2.414500000000000E+009;1.895233839750290E-001;-2.981162816286087E-002;3.923484124243259E-003;-3.659899579361081E-003;
2.414666666666667E+009;1.909464001655579E-001;-3.170678019523621E-002;3.823075443506241E-003;-4.023909568786621E-003;
2.414833333333334E+009;1.922027319669724E-001;-3.322035074234009E-002;3.497791010886431E-003;-4.082747735083103E-003;
2.415000000000000E+009;1.935083419084549E-001;-3.466195613145828E-002;3.265665145590901E-003;-4.316955339163542E-003;
2.415166666666667E+009;1.950568854808807E-001;-3.598249331116676E-002;2.821672009304166E-003;-4.405647981911898E-003;
2.415333333333334E+009;1.964479088783264E-001;-3.712882846593857E-002;2.616474637761712E-003;-4.794117063283920E-003;
2.415500000000000E+009;1.978986412286758E-001;-3.811553120613098E-002;2.451325068250299E-003;-4.954307805746794E-003;
2.415666666666667E+009;1.990818679332733E-001;-3.902393952012062E-002;2.142182318493724E-003;-5.013593006879091E-003;
2.415833333333334E+009;2.002817243337631E-001;-3.982177004218102E-002;2.082410966977477E-003;-5.178463179618120E-003;
2.416000000000000E+009;2.014130651950836E-001;-4.045956209301949E-002;1.686885487288237E-003;-5.304315593093634E-003;
2.416166666666667E+009;2.024279236793518E-001;-4.108597338199616E-002;1.428083749487996E-003;-5.279683042317629E-003;
2.416333333333334E+009;2.033218145370483E-001;-4.136581718921661E-002;1.115012215450406E-003;-5.382263567298651E-003;
2.416500000000000E+009;2.042595744132996E-001;-4.160928726196289E-002;8.087120368145406E-004;-5.497138015925884E-003;
2.416666666666667E+009;2.048068344593048E-001;-4.207836091518402E-002;4.342558386269957E-004;-5.539473146200180E-003;
2.416833333333334E+009;2.051646411418915E-001;-4.205336049199104E-002;9.373140346724540E-005;-5.593937821686268E-003;
2.417000000000000E+009;2.056229263544083E-001;-4.210972413420677E-002;-2.709877153392881E-004;-5.534318275749683E-003;
2.417166666666667E+009;2.055825591087341E-001;-4.209611564874649E-002;-7.486139074899256E-004;-5.509705282747746E-003;
2.417333333333334E+009;2.056048810482025E-001;-4.165055230259895E-002;-8.605017792433500E-004;-5.508590489625931E-003;
2.417500000000000E+009;2.056069821119309E-001;-4.158306494355202E-002;-1.291438704356551E-003;-5.514657124876976E-003;
2.417666666666667E+009;2.052943557500839E-001;-4.127735644578934E-002;-1.315554953180254E-003;-5.236565601080656E-003;
2.417833333333334E+009;2.050840854644775E-001;-4.089390113949776E-002;-1.687055104412139E-003;-5.066675599664450E-003;
2.418000000000000E+009;2.045170068740845E-001;-4.047958180308342E-002;-2.006660448387265E-003;-4.944847431033850E-003;
2.418166666666667E+009;2.039504796266556E-001;-4.031306877732277E-002;-2.347217872738838E-003;-4.732003435492516E-003;
2.418333333333334E+009;2.031781971454620E-001;-3.989547118544579E-002;-2.540871035307646E-003;-4.505184479057789E-003;
2.418500000000000E+009;2.022690474987030E-001;-3.961524367332459E-002;-2.795283915475011E-003;-4.336711484938860E-003;
2.418666666666667E+009;2.014810740947723E-001;-3.939531743526459E-002;-2.903674496337771E-003;-4.132962319999933E-003;
2.418833333333334E+009;2.002622932195664E-001;-3.934659063816071E-002;-2.917865058407188E-003;-3.835271578282118E-003;
2.419000000000000E+009;1.989597529172897E-001;-3.929654508829117E-002;-3.174818586558104E-003;-3.525422886013985E-003;
2.419166666666667E+009;1.977715194225311E-001;-3.936208784580231E-002;-3.197501413524151E-003;-3.338974667713046E-003;
2.419333333333334E+009;1.963160336017609E-001;-3.973135352134705E-002;-3.310084110125899E-003;-3.006310900673270E-003;
2.419500000000000E+009;1.946527510881424E-001;-3.978836908936501E-002;-3.299462376162410E-003;-2.802297240123153E-003;
2.419666666666667E+009;1.930834054946899E-001;-4.034694656729698E-002;-3.301634686067700E-003;-2.606012625619769E-003;
2.419833333333334E+009;1.914187222719193E-001;-4.090068116784096E-002;-3.352252999320626E-003;-2.354858210310340E-003;
2.420000000000000E+009;1.898289620876312E-001;-4.162292182445526E-002;-3.121861489489675E-003;-2.206353470683098E-003;
2.420166666666667E+009;1.879469603300095E-001;-4.239796474575996E-002;-3.145862137898803E-003;-1.759750884957612E-003;
2.420333333333334E+009;1.861423105001450E-001;-4.341695457696915E-002;-3.095885971561074E-003;-1.737629296258092E-003;
2.420500000000000E+009;1.843238472938538E-001;-4.463784769177437E-002;-2.947147237136960E-003;-1.762250321917236E-003;
2.420666666666667E+009;1.826131641864777E-001;-4.540023952722549E-002;-2.941439161077142E-003;-1.606919220648706E-003;
2.420833333333334E+009;1.806657761335373E-001;-4.704100638628006E-002;-2.819375833496451E-003;-1.439329120330513E-003;
2.421000000000000E+009;1.791149228811264E-001;-4.866323247551918E-002;-2.779518952593207E-003;-1.427151495590806E-003;
2.421166666666667E+009;1.775120049715042E-001;-5.020407214760780E-002;-2.711150795221329E-003;-1.219968893565238E-003;
2.421333333333334E+009;1.757263094186783E-001;-5.188302323222160E-002;-2.655682386830449E-003;-1.234717550687492E-003;
2.421500000000000E+009;1.740469634532929E-001;-5.392004176974297E-002;-2.472790656611323E-003;-1.331957639195025E-003;
2.421666666666667E+009;1.725851744413376E-001;-5.567383766174316E-002;-2.577344188466668E-003;-1.167269423604012E-003;
2.421833333333334E+009;1.712324470281601E-001;-5.777367949485779E-002;-2.442813245579600E-003;-1.136804465204477E-003;
2.422000000000000E+009;1.698841154575348E-001;-5.964095890522003E-002;-2.389390021562576E-003;-1.338494708761573E-003;
2.422166666666667E+009;1.688658893108368E-001;-6.180815398693085E-002;-2.520611509680748E-003;-1.269710483029485E-003;
2.422333333333334E+009;1.675125062465668E-001;-6.415149569511414E-002;-2.547816839069128E-003;-1.122305169701576E-003;
2.422500000000000E+009;1.667123585939407E-001;-6.629282981157303E-002;-2.504091477021575E-003;-1.063111936673522E-003;
2.422666666666667E+009;1.658126413822174E-001;-6.848935037851334E-002;-2.495606895536184E-003;-1.003286335617304E-003;
2.422833333333334E+009;1.651993393898010E-001;-7.081825286149979E-002;-2.617356833070517E-003;-1.098730601370335E-003;
2.423000000000000E+009;1.644465476274490E-001;-7.318025082349777E-002;-2.697177929803729E-003;-1.073052408173680E-003;
2.423166666666667E+009;1.641158610582352E-001;-7.537455856800079E-002;-2.625771565362811E-003;-9.744364069774747E-004;
2.423333333333334E+009;1.637385487556458E-001;-7.749570161104202E-002;-2.583163790404797E-003;-9.401190909557045E-004;
2.423500000000000E+009;1.635018289089203E-001;-7.967389374971390E-002;-2.444825600832701E-003;-8.438068907707930E-004;
2.423666666666667E+009;1.635475158691406E-001;-8.179127424955368E-002;-2.524222247302532E-003;-7.855917792767286E-004;
2.423833333333334E+009;1.634703576564789E-001;-8.379240334033966E-002;-2.399250166490674E-003;-7.548569701611996E-004;
2.424000000000000E+009;1.635239869356155E-001;-8.578971773386002E-002;-2.343187341466546E-003;-7.734620012342930E-004;
2.424166666666667E+009;1.635798513889313E-001;-8.786883205175400E-002;-2.339821774512529E-003;-7.854177965782583E-004;
2.424333333333334E+009;1.639704108238220E-001;-8.946456015110016E-002;-2.444516634568572E-003;-7.842315244488418E-004;
2.424500000000000E+009;1.642940789461136E-001;-9.157433360815048E-002;-2.327778376638889E-003;-8.495422080159187E-004;
2.424666666666667E+009;1.646248847246170E-001;-9.325984120368958E-002;-2.486295998096466E-003;-1.030609942972660E-003;
2.424833333333334E+009;1.652153134346008E-001;-9.476354718208313E-002;-2.421941841021180E-003;-9.214241872541606E-004;
2.425000000000000E+009;1.657898277044296E-001;-9.623341262340546E-002;-2.603717148303986E-003;-9.790568146854639E-004;
2.425166666666667E+009;1.661958992481232E-001;-9.747793525457382E-002;-2.670722315087915E-003;-9.133444982580841E-004;
2.425333333333334E+009;1.666894406080246E-001;-9.866667538881302E-002;-2.804416231811047E-003;-8.870072197169066E-004;
2.425500000000000E+009;1.674182713031769E-001;-9.977343678474426E-002;-2.992265392094851E-003;-1.083576818928123E-003;
2.425666666666667E+009;1.679034084081650E-001;-1.006186977028847E-001;-3.114813007414341E-003;-9.383506258018315E-004;
2.425833333333334E+009;1.683793812990189E-001;-1.016654297709465E-001;-3.132521873340011E-003;-8.218756993301213E-004;
2.426000000000000E+009;1.689814776182175E-001;-1.022090911865234E-001;-3.464687615633011E-003;-5.515015218406916E-004;
2.426166666666667E+009;1.696355640888214E-001;-1.028064116835594E-001;-3.360673552379012E-003;-5.866879364475608E-004;
2.426333333333334E+009;1.700019389390945E-001;-1.034631654620171E-001;-3.585331141948700E-003;-2.593418757896870E-004;
2.426500000000000E+009;1.706015765666962E-001;-1.037855893373489E-001;-3.792272182181478E-003;-2.957186079584062E-004;
2.426666666666667E+009;1.710229068994522E-001;-1.041045188903809E-001;-3.661497496068478E-003;8.504792640451342E-005;
2.426833333333334E+009;1.714847534894943E-001;-1.043912023305893E-001;-3.725644666701555E-003;1.764189073583111E-004;
2.427000000000000E+009;1.717265546321869E-001;-1.045499742031097E-001;-3.653622465208173E-003;3.062975883949548E-004;
2.427166666666667E+009;1.720451861619949E-001;-1.046862006187439E-001;-3.750989446416497E-003;4.764753684867173E-004;
2.427333333333334E+009;1.721168309450150E-001;-1.048865094780922E-001;-3.677694592624903E-003;7.199360406957567E-004;
2.427500000000000E+009;1.720511168241501E-001;-1.049199998378754E-001;-3.507828805595636E-003;7.899324409663677E-004;
2.427666666666667E+009;1.719465404748917E-001;-1.048817113041878E-001;-3.542426042258740E-003;9.625011007301509E-004;
