# Version 1.00
#
freq[Hz];re:Trc1_S11;im:Trc1_S11;re:Trc2_S21;im:Trc2_S21;
2.400000000000000E+009;1.692899614572525E-001;4.578753933310509E-002;-2.926210581790656E-004;-5.432491190731525E-003;
2.400166666666667E+009;1.702720522880554E-001;4.492006078362465E-002;-4.275772662367672E-004;-5.374703090637922E-003;
2.400333333333334E+009;1.711486876010895E-001;4.358419403433800E-002;-5.520713748410344E-004;-5.196862854063511E-003;
2.400500000000000E+009;1.723179072141647E-001;4.279481247067452E-002;-6.369769689626992E-004;-5.219374783337116E-003;
2.400666666666667E+009;1.729989200830460E-001;4.184484481811523E-002;-8.315505110658705E-004;-5.166816059499979E-003;
2.400833333333334E+009;1.738824397325516E-001;4.113775119185448E-002;-1.028929254971445E-003;-4.900648258626461E-003;
2.401000000000000E+009;1.747044026851654E-001;4.047930613160133E-002;-1.108090160414577E-003;-4.980373661965132E-003;
2.401166666666667E+009;1.756810098886490E-001;3.968887031078339E-002;-1.174382632598281E-003;-4.861788824200630E-003;
2.401333333333334E+009;1.762655079364777E-001;3.889653086662293E-002;-1.472372910939157E-003;-4.768742714077234E-003;
2.401500000000000E+009;1.770918369293213E-001;3.856244683265686E-002;-1.556425588205457E-003;-4.656208213418722E-003;
2.401666666666667E+009;1.777089387178421E-001;3.795268014073372E-002;-1.697378349490464E-003;-4.536004737019539E-003;
2.401833333333334E+009;1.782225966453552E-001;3.748413920402527E-002;-1.774606644175947E-003;-4.513277672231197E-003;
2.402000000000000E+009;1.786497086286545E-001;3.694121912121773E-002;-2.123381942510605E-003;-4.287295509129763E-003;
2.402166666666667E+009;1.790498197078705E-001;3.611632809042931E-002;-2.099829260259867E-003;-4.258265253156424E-003;
2.402333333333334E+009;1.792669296264648E-001;3.555294498801231E-002;-2.268382115289569E-003;-3.989995922893286E-003;
2.402500000000000E+009;1.800304055213928E-001;3.512386605143547E-002;-2.336480887606740E-003;-3.886454040184617E-003;
2.402666666666667E+009;1.799954771995544E-001;3.455321490764618E-002;-2.336256671696901E-003;-3.859787480905652E-003;
2.402833333333334E+009;1.800168156623840E-001;3.388466686010361E-002;-2.310884883627296E-003;-3.775341436266899E-003;
2.403000000000000E+009;1.799887120723724E-001;3.334598988294601E-002;-2.538497792556882E-003;-3.630046267062426E-003;
2.403166666666667E+009;1.800073981285095E-001;3.256130591034889E-002;-2.482425421476364E-003;-3.208734793588519E-003;
2.403333333333334E+009;1.798084974288940E-001;3.165797889232636E-002;-2.537176944315434E-003;-3.320094896480441E-003;
2.403500000000000E+009;1.795697361230850E-001;3.069295920431614E-002;-2.482841955497861E-003;-3.233395051211119E-003;
2.403666666666667E+009;1.794924288988113E-001;2.978913858532906E-002;-2.462572418153286E-003;-3.092818195000291E-003;
2.403833333333334E+009;1.791257411241531E-001;2.865294925868511E-002;-2.453454537317157E-003;-3.001763951033354E-003;
2.404000000000000E+009;1.788477748632431E-001;2.758654393255711E-002;-2.402925398200750E-003;-3.124461509287357E-003;
2.404166666666667E+009;1.783704757690430E-001;2.634106576442719E-002;-2.521491143852472E-003;-3.065014025196433E-003;
2.404333333333334E+009;1.778195053339005E-001;2.525866031646729E-002;-2.451921813189983E-003;-3.102992661297321E-003;
2.404500000000000E+009;1.771420091390610E-001;2.401038818061352E-002;-2.648765919730067E-003;-3.009436884894967E-003;
2.404666666666667E+009;1.767825186252594E-001;2.256991155445576E-002;-2.722687786445022E-003;-3.031030530110002E-003;
2.404833333333334E+009;1.762663125991821E-001;2.113229036331177E-002;-2.904623514041305E-003;-3.034790512174368E-003;
2.405000000000000E+009;1.757936179637909E-001;1.957267522811890E-002;-2.872725250199437E-003;-3.132617333903909E-003;
2.405166666666667E+009;1.752377748489380E-001;1.811992004513741E-002;-2.857730491086841E-003;-2.928697271272540E-003;
2.405333333333334E+009;1.747603714466095E-001;1.613947749137878E-002;-3.129735123366118E-003;-2.911898540332913E-003;
2.405500000000000E+009;1.743891686201096E-001;1.467661466449499E-002;-3.311983775347471E-003;-3.024012548848987E-003;
2.405666666666667E+009;1.738004982471466E-001;1.301666442304850E-002;-3.396901534870267E-003;-2.926779212430120E-003;
2.405833333333334E+009;1.733271777629852E-001;1.108122523874044E-002;-3.369621234014630E-003;-2.830607118085027E-003;
2.406000000000000E+009;1.731045842170715E-001;9.131709113717079E-003;-3.545375540852547E-003;-2.679932629689574E-003;
2.406166666666667E+009;1.728425621986389E-001;7.424960378557444E-003;-3.726920112967491E-003;-2.544645220041275E-003;
2.406333333333334E+009;1.726920902729034E-001;5.167803727090359E-003;-3.735923441126943E-003;-2.560491207987070E-003;
2.406500000000000E+009;1.726818382740021E-001;3.304124111309648E-003;-4.144852515310049E-003;-2.577150939032435E-003;
2.406666666666667E+009;1.723083406686783E-001;1.066040596924722E-003;-4.178610164672136E-003;-2.388461725786328E-003;
2.406833333333334E+009;1.722410321235657E-001;-1.115961000323296E-003;-4.216444212943316E-003;-2.117717172950506E-003;
2.407000000000000E+009;1.725901514291763E-001;-3.081619506701827E-003;-4.246537107974291E-003;-1.974108861759305E-003;
2.407166666666667E+009;1.727133095264435E-001;-5.261333193629980E-003;-4.489435348659754E-003;-1.792098511941731E-003;
2.407333333333334E+009;1.726720631122589E-001;-7.439432665705681E-003;-4.660131875425577E-003;-1.504085026681423E-003;
2.407500000000000E+009;1.729217469692230E-001;-9.460779838263989E-003;-4.677568096667528E-003;-1.474655582569540E-003;
2.407666666666667E+009;1.732054650783539E-001;-1.153420656919479E-002;-4.816756583750248E-003;-1.148159848526120E-003;
2.407833333333334E+009;1.734762489795685E-001;-1.371708232909441E-002;-4.971273709088564E-003;-9.635380702093244E-004;
2.408000000000000E+009;1.737388074398041E-001;-1.595109514892101E-002;-4.711851011961699E-003;-6.450149230659008E-004;
2.408166666666667E+009;1.742977201938629E-001;-1.789385266602039E-002;-5.020989105105400E-003;-5.654279957525432E-004;
2.408333333333334E+009;1.749657988548279E-001;-1.984354294836521E-002;-4.918091464787722E-003;-4.514315805863589E-004;
2.408500000000000E+009;1.753754466772080E-001;-2.188956737518311E-002;-4.919187631458044E-003;2.069591209874488E-005;
2.408666666666667E+009;1.757841110229492E-001;-2.372915111482143E-002;-4.879475105553865E-003;3.150464617647231E-004;
2.408833333333334E+009;1.762400865554810E-001;-2.560554072260857E-002;-4.802898969501257E-003;5.292107234708965E-004;
2.409000000000000E+009;1.766564548015595E-001;-2.710062824189663E-002;-4.658452235162258E-003;7.489735726267099E-004;
2.409166666666667E+009;1.772454679012299E-001;-2.888389118015766E-002;-4.515276290476322E-003;9.466138435527682E-004;
2.409333333333334E+009;1.776143312454224E-001;-3.023393079638481E-002;-4.418913275003433E-003;1.148220500908792E-003;
2.409500000000000E+009;1.780676096677780E-001;-3.171289339661598E-002;-4.253559745848179E-003;1.246756059117615E-003;
2.409666666666667E+009;1.784884780645371E-001;-3.284853696823120E-002;-4.080044105648994E-003;1.468585454858840E-003;
2.409833333333334E+009;1.789851784706116E-001;-3.388321399688721E-002;-3.932997118681669E-003;1.578961964696646E-003;
2.410000000000000E+009;1.794753968715668E-001;-3.498576954007149E-002;-3.782628802582622E-003;1.780953258275986E-003;
2.410166666666667E+009;1.800187379121780E-001;-3.585917502641678E-002;-3.750936128199101E-003;1.820297213271260E-003;
2.410333333333334E+009;1.805120706558228E-001;-3.662274405360222E-002;-3.557933727279306E-003;1.808776287361980E-003;
2.410500000000000E+009;1.809069812297821E-001;-3.752040490508080E-002;-3.217484103515744E-003;1.921220682561398E-003;
2.410666666666667E+009;1.813513636589050E-001;-3.838020935654640E-002;-3.249501343816519E-003;2.127831568941474E-003;
2.410833333333334E+009;1.817071437835693E-001;-3.871900588274002E-002;-3.137464169412851E-003;1.981240464374423E-003;
2.411000000000000E+009;1.818550974130631E-001;-3.928471356630325E-002;-3.072915598750114E-003;1.990471500903368E-003;
2.411166666666667E+009;1.818937659263611E-001;-3.972231596708298E-002;-2.885911613702774E-003;1.984293106943369E-003;
2.411333333333334E+009;1.822498738765717E-001;-4.026329889893532E-002;-2.932514296844602E-003;2.024607034400106E-003;
2.411500000000000E+009;1.824755817651749E-001;-4.070352390408516E-002;-2.735488116741180E-003;2.013057703152299E-003;
2.411666666666667E+009;1.825735270977020E-001;-4.124924540519714E-002;-2.492851344868541E-003;2.228833269327879E-003;
2.411833333333334E+009;1.823689639568329E-001;-4.128659889101982E-002;-2.580765634775162E-003;2.077067736536264E-003;
2.412000000000000E+009;1.821782588958740E-001;-4.189094528555870E-002;-2.593044890090823E-003;2.178181195631623E-003;
2.412166666666667E+009;1.815964430570602E-001;-4.216201230883598E-002;-2.496280707418919E-003;2.021049382165074E-003;
2.412333333333334E+009;1.816666275262833E-001;-4.231837391853333E-002;-2.390108536928892E-003;2.074734773486853E-003;
2.412500000000000E+009;1.809790432453156E-001;-4.254274070262909E-002;-2.369550289586186E-003;2.071398310363293E-003;
2.412666666666667E+009;1.804733872413635E-001;-4.315622523427010E-002;-2.495792461559176E-003;2.082097111269832E-003;
2.412833333333334E+009;1.796715259552002E-001;-4.335555806756020E-002;-2.434849273413420E-003;1.897151581943035E-003;
2.413000000000000E+009;1.789771467447281E-001;-4.372224956750870E-002;-2.208858029916883E-003;1.831049914471805E-003;
2.413166666666667E+009;1.780058145523071E-001;-4.408461228013039E-002;-2.394518582150340E-003;2.162952441722155E-003;
2.413333333333334E+009;1.770519912242889E-001;-4.451321065425873E-002;-2.403346821665764E-003;2.042851643636823E-003;
2.413500000000000E+009;1.761209368705750E-001;-4.486062005162239E-002;-2.398946089670062E-003;2.129386877641082E-003;
2.413666666666667E+009;1.748744547367096E-001;-4.539212584495544E-002;-2.450574189424515E-003;2.133674221113324E-003;
2.413833333333334E+009;1.738375425338745E-001;-4.604369029402733E-002;-2.337008481845260E-003;2.298043342307210E-003;
2.414000000000000E+009;1.725343763828278E-001;-4.657220840454102E-002;-2.417649375274777E-003;2.333321841433644E-003;
2.414166666666667E+009;1.714335530996323E-001;-4.720205441117287E-002;-2.371488139033318E-003;2.396046649664640E-003;
2.414333333333334E+009;1.703000068664551E-001;-4.798136278986931E-002;-2.424265956506133E-003;2.366738859564066E-003;
2.414500000000000E+009;1.691856086254120E-001;-4.886473715305328E-002;-2.499661874026060E-003;2.564232097938657E-003;
2.414666666666667E+009;1.677549481391907E-001;-4.971293359994888E-002;-2.354086143895984E-003;2.796862507238984E-003;
2.414833333333334E+009;1.666316837072372E-001;-5.084435641765595E-002;-2.316786674782634E-003;2.955324482172728E-003;
2.415000000000000E+009;1.652306020259857E-001;-5.194892734289169E-002;-2.207563724368811E-003;3.090679179877043E-003;
2.415166666666667E+009;1.640794277191162E-001;-5.307128280401230E-002;-2.109932247549295E-003;3.137537743896246E-003;
2.415333333333334E+009;1.630752086639404E-001;-5.448955669999123E-002;-2.062570769339800E-003;3.097173059359193E-003;
2.415500000000000E+009;1.618748605251312E-001;-5.582100525498390E-002;-1.863996032625437E-003;3.209692658856511E-003;
2.415666666666667E+009;1.604935675859451E-001;-5.727302283048630E-002;-1.830080640502274E-003;3.385947784408927E-003;
2.415833333333334E+009;1.596576422452927E-001;-5.892551317811012E-002;-1.662694266997278E-003;3.493068506941199E-003;
2.416000000000000E+009;1.583825498819351E-001;-6.056332215666771E-002;-1.523054903373122E-003;3.420007415115833E-003;
2.416166666666667E+009;1.575024425983429E-001;-6.232078000903130E-002;-1.432288088835776E-003;3.486538538709283E-003;
2.416333333333334E+009;1.565483808517456E-001;-6.421067565679550E-002;-1.335584442131221E-003;3.647012170404196E-003;
2.416500000000000E+009;1.556628793478012E-001;-6.606470048427582E-002;-1.132568228058517E-003;3.568488173186779E-003;
2.416666666666667E+009;1.545667648315430E-001;-6.787232309579849E-002;-1.000951626338065E-003;3.533569164574146E-003;
2.416833333333334E+009;1.540016382932663E-001;-6.995180994272232E-002;-8.954845834523439E-004;3.673024242743850E-003;
2.417000000000000E+009;1.530463844537735E-001;-7.187819480895996E-002;-7.580799283459783E-004;3.674203529953957E-003;
2.417166666666667E+009;1.523559391498566E-001;-7.384542375802994E-002;-7.654062355868518E-004;3.671992570161820E-003;
2.417333333333334E+009;1.518681496381760E-001;-7.580399513244629E-002;-7.920117932371795E-004;3.592540742829442E-003;
2.417500000000000E+009;1.513003110885620E-001;-7.793553173542023E-002;-5.960977869108319E-004;3.702468937262893E-003;
2.417666666666667E+009;1.509145647287369E-001;-7.956327497959137E-002;-3.732880577445030E-004;3.819215809926391E-003;
2.417833333333334E+009;1.505264639854431E-001;-8.140026777982712E-002;-4.139862721785903E-004;3.952444531023502E-003;
2.418000000000000E+009;1.499986052513123E-001;-8.352752774953842E-002;-2.516275271773338E-004;3.869601292535663E-003;
2.418166666666667E+009;1.498133838176727E-001;-8.517024666070938E-002;-4.075792676303536E-004;3.953766543418169E-003;
2.418333333333334E+009;1.499305665493012E-001;-8.695846796035767E-002;-1.322918396908790E-004;4.016914404928684E-003;
2.418500000000000E+009;1.496224552392960E-001;-8.857918530702591E-002;2.998044328705873E-005;4.156887996941805E-003;
2.418666666666667E+009;1.496421992778778E-001;-9.007056802511215E-002;1.108436918002553E-004;4.036196041852236E-003;
2.418833333333334E+009;1.495608687400818E-001;-9.158909320831299E-002;3.249623114243150E-004;4.121533129364252E-003;
2.419000000000000E+009;1.494989544153214E-001;-9.302768111228943E-002;6.538801244460046E-004;4.191995132714510E-003;
2.419166666666667E+009;1.496796756982803E-001;-9.423947334289551E-002;7.575246854685247E-004;4.178961738944054E-003;
2.419333333333334E+009;1.497038304805756E-001;-9.522204101085663E-002;9.874516399577260E-004;4.186280537396669E-003;
2.419500000000000E+009;1.499699205160141E-001;-9.647393226623535E-002;1.204410335049033E-003;4.020316526293755E-003;
2.419666666666667E+009;1.503468155860901E-001;-9.756559133529663E-002;1.359388465061784E-003;4.120041616261005E-003;
2.419833333333334E+009;1.504179984331131E-001;-9.805857390165329E-002;1.566987484693527E-003;3.919403534382582E-003;
2.420000000000000E+009;1.508781164884567E-001;-9.868615865707398E-002;1.755008823238313E-003;3.790869610384107E-003;
2.420166666666667E+009;1.510541290044785E-001;-9.931180626153946E-002;1.939431298524141E-003;3.779511200264096E-003;
2.420333333333334E+009;1.515047103166580E-001;-9.988641738891602E-002;1.991983503103256E-003;3.794398624449968E-003;
2.420500000000000E+009;1.518008261919022E-001;-9.995750337839127E-002;2.142306184396148E-003;3.671491052955389E-003;
2.420666666666667E+009;1.520291864871979E-001;-1.001168191432953E-001;2.375918440520763E-003;3.614949295297265E-003;
2.420833333333334E+009;1.524119973182678E-001;-1.003518700599670E-001;2.322904067113996E-003;3.322838339954615E-003;
2.421000000000000E+009;1.524579226970673E-001;-1.005700379610062E-001;2.509325277060270E-003;3.357834415510297E-003;
2.421166666666667E+009;1.527289301156998E-001;-1.005259677767754E-001;2.605189569294453E-003;3.057131078094244E-003;
2.421333333333334E+009;1.529996544122696E-001;-1.004134491086006E-001;2.632517600432038E-003;3.005425212904811E-003;
2.421500000000000E+009;1.529696881771088E-001;-1.001438722014427E-001;2.678493969142437E-003;2.690833294764161E-003;
2.421666666666667E+009;1.531402170658112E-001;-9.990750998258591E-002;2.803121227771044E-003;2.715504029765725E-003;
2.421833333333334E+009;1.530461907386780E-001;-9.976101666688919E-002;2.879778388887644E-003;2.627748064696789E-003;
2.422000000000000E+009;1.529111266136169E-001;-9.952104091644287E-002;2.940547652542591E-003;2.494466956704855E-003;
2.422166666666667E+009;1.526875942945480E-001;-9.938519448041916E-002;3.003156278282404E-003;2.404551953077316E-003;
2.422333333333334E+009;1.522968560457230E-001;-9.879488497972488E-002;3.107670228928328E-003;2.211952582001686E-003;
2.422500000000000E+009;1.517911702394486E-001;-9.847903251647949E-002;3.148530377075076E-003;2.232602797448635E-003;
2.422666666666667E+009;1.511799693107605E-001;-9.827716648578644E-002;3.286123275756836E-003;2.121800091117621E-003;
2.422833333333334E+009;1.505628973245621E-001;-9.790526330471039E-002;3.199383383616805E-003;2.025353256613016E-003;
2.423000000000000E+009;1.497875452041626E-001;-9.756872057914734E-002;3.221838502213359E-003;1.875452348031104E-003;
2.423166666666667E+009;1.490357220172882E-001;-9.711773693561554E-002;3.282992634922266E-003;1.652216538786888E-003;
2.423333333333334E+009;1.480503231287003E-001;-9.668025374412537E-002;3.373123006895185E-003;1.564966049045324E-003;
2.423500000000000E+009;1.468187421560288E-001;-9.624580293893814E-002;3.204216249287128E-003;1.525089377537370E-003;
2.423666666666667E+009;1.456304043531418E-001;-9.608748555183411E-002;3.336991416290402E-003;1.464850036427379E-003;
2.423833333333334E+009;1.445598304271698E-001;-9.586004167795181E-002;3.239703830331564E-003;1.488647772930563E-003;
2.424000000000000E+009;1.430497616529465E-001;-9.569140523672104E-002;3.288673935458064E-003;1.164025859907270E-003;
2.424166666666667E+009;1.416051238775253E-001;-9.556646645069122E-002;3.391291946172714E-003;1.069122343324125E-003;
2.424333333333334E+009;1.401822417974472E-001;-9.529891610145569E-002;3.176817204803228E-003;1.128400443121791E-003;
2.424500000000000E+009;1.388454735279083E-001;-9.534396976232529E-002;3.370489925146103E-003;1.079205307178199E-003;
2.424666666666667E+009;1.375889778137207E-001;-9.538588672876358E-002;3.245804924517870E-003;1.009966712445021E-003;
2.424833333333334E+009;1.358006000518799E-001;-9.565862268209457E-002;3.444998059421778E-003;8.959690458141267E-004;
2.425000000000000E+009;1.344788968563080E-001;-9.606015682220459E-002;3.394290804862976E-003;8.042183471843600E-004;
2.425166666666667E+009;1.325723528862000E-001;-9.645009785890579E-002;3.476782934740186E-003;1.034478656947613E-003;
2.425333333333334E+009;1.312877684831619E-001;-9.704102575778961E-002;3.349608741700649E-003;7.974714390002191E-004;
2.425500000000000E+009;1.298166215419769E-001;-9.771105647087097E-002;3.513294970616698E-003;7.081297808326781E-004;
2.425666666666667E+009;1.281102150678635E-001;-9.852540493011475E-002;3.521858248859644E-003;4.790768434759229E-004;
2.425833333333334E+009;1.267604231834412E-001;-9.941296279430389E-002;3.589392174035311E-003;4.424837825354189E-004;
2.426000000000000E+009;1.252456456422806E-001;-1.004619300365448E-001;3.635004861280322E-003;3.530355752445757E-004;
2.426166666666667E+009;1.241283342242241E-001;-1.016290038824081E-001;3.586153499782085E-003;2.636884455569089E-004;
2.426333333333334E+009;1.225036159157753E-001;-1.027836352586746E-001;3.609390696510673E-003;6.835239037172869E-005;
2.426500000000000E+009;1.213748529553413E-001;-1.040011495351791E-001;3.633512416854501E-003;1.783465559128672E-004;
2.426666666666667E+009;1.203141957521439E-001;-1.054347455501556E-001;3.821953432634473E-003;-1.360052701784298E-004;
2.426833333333334E+009;1.191715747117996E-001;-1.069942340254784E-001;3.848902182653546E-003;-1.758091966621578E-004;
2.427000000000000E+009;1.179151609539986E-001;-1.086558103561401E-001;3.767841495573521E-003;-3.844625607598573E-004;
2.427166666666667E+009;1.170162409543991E-001;-1.102016940712929E-001;3.764761378988624E-003;-7.056830800138414E-004;
2.427333333333334E+009;1.160027012228966E-001;-1.118741855025291E-001;3.606923855841160E-003;-6.547827506437898E-004;
2.427500000000000E+009;1.152912378311157E-001;-1.136941984295845E-001;3.538592020049691E-003;-8.009874145500362E-004;
2.427666666666667E+009;1.145111620426178E-001;-1.154414936900139E-001;3.324677003547549E-003;-9.829372866079211E-004;
