# Version 1.00
#
freq[Hz];re:Trc1_S11;im:Trc1_S11;re:Trc2_S21;im:Trc2_S21;
2.400000000000000E+009;1.548384428024292E-001;1.067505851387978E-001;-3.523824270814657E-003;-1.566497725434601E-003;
2.400166666666667E+009;1.545953899621964E-001;1.043714731931686E-001;-3.429304575547576E-003;-1.414616242982447E-003;
2.400333333333334E+009;1.547506451606751E-001;1.020699515938759E-001;-3.480170387774706E-003;-1.457034260965884E-003;
2.400500000000000E+009;1.548013985157013E-001;9.926649183034897E-002;-3.619303693994880E-003;-1.291992841288447E-003;
2.400666666666667E+009;1.547807455062866E-001;9.681053459644318E-002;-3.482019761577249E-003;-1.238593831658363E-003;
2.400833333333334E+009;1.549710482358933E-001;9.385572373867035E-002;-3.534656483680010E-003;-9.708686848171055E-004;
2.401000000000000E+009;1.551231443881989E-001;9.108056128025055E-002;-3.544277045875788E-003;-1.108711585402489E-003;
2.401166666666667E+009;1.551333367824554E-001;8.825411647558212E-002;-3.363198833540082E-003;-8.778289775364101E-004;
2.401333333333334E+009;1.555397808551788E-001;8.561756461858749E-002;-3.553021466359496E-003;-8.565369644202292E-004;
2.401500000000000E+009;1.560734957456589E-001;8.271357417106628E-002;-3.362821880728006E-003;-6.845543975941837E-004;
2.401666666666667E+009;1.564278304576874E-001;7.996466010808945E-002;-3.490985371172428E-003;-8.402858511544764E-004;
2.401833333333334E+009;1.571086645126343E-001;7.718707621097565E-002;-3.507809247821569E-003;-8.751940331421793E-004;
2.402000000000000E+009;1.578106880187988E-001;7.454451173543930E-002;-3.353799460455775E-003;-7.408540113829076E-004;
2.402166666666667E+009;1.586666703224182E-001;7.203868031501770E-002;-3.456179983913899E-003;-5.703265196643770E-004;
2.402333333333334E+009;1.597950607538223E-001;6.935308128595352E-002;-3.608949482440949E-003;-6.447130581364036E-004;
2.402500000000000E+009;1.608462184667587E-001;6.682802736759186E-002;-3.694491228088737E-003;-5.484560970216990E-004;
2.402666666666667E+009;1.620594114065170E-001;6.449116021394730E-002;-3.790339222177863E-003;-5.751458229497075E-004;
2.402833333333334E+009;1.634292751550674E-001;6.226867809891701E-002;-3.950945567339659E-003;-2.831787569448352E-004;
2.403000000000000E+009;1.650382131338120E-001;5.989182740449905E-002;-3.846440231427550E-003;-7.594615453854203E-005;
2.403166666666667E+009;1.666357219219208E-001;5.763118341565132E-002;-4.114358685910702E-003;-2.100381789205130E-005;
2.403333333333334E+009;1.680962592363358E-001;5.567697808146477E-002;-4.042706917971373E-003;1.524955441709608E-004;
2.403500000000000E+009;1.698952615261078E-001;5.335058271884918E-002;-4.162837285548449E-003;2.325114619452506E-004;
2.403666666666667E+009;1.716755777597427E-001;5.163415148854256E-002;-4.165803547948599E-003;4.974411567673087E-004;
2.403833333333334E+009;1.731494814157486E-001;4.999122768640518E-002;-4.174282774329186E-003;8.305056835524738E-004;
2.404000000000000E+009;1.748468577861786E-001;4.801698401570320E-002;-4.080932121723890E-003;9.822314605116844E-004;
2.404166666666667E+009;1.765531897544861E-001;4.667133092880249E-002;-3.931638784706593E-003;1.234380644746125E-003;
2.404333333333334E+009;1.781987696886063E-001;4.529530182480812E-002;-4.043847322463989E-003;1.449327566660941E-003;
2.404500000000000E+009;1.797797232866287E-001;4.386362433433533E-002;-3.894978901371360E-003;1.600366085767746E-003;
2.404666666666667E+009;1.814810782670975E-001;4.265019297599793E-002;-3.651777980849147E-003;1.691916841082275E-003;
2.404833333333334E+009;1.831358820199966E-001;4.171637818217278E-002;-3.567585954442620E-003;1.853223540820181E-003;
2.405000000000000E+009;1.844166070222855E-001;4.104638844728470E-002;-3.534737741574645E-003;1.939587178640068E-003;
2.405166666666667E+009;1.859440356492996E-001;4.024536162614822E-002;-3.461121814325452E-003;2.039441838860512E-003;
2.405333333333334E+009;1.872774958610535E-001;3.961747512221336E-002;-3.206499852240086E-003;2.105182735249400E-003;
2.405500000000000E+009;1.887456029653549E-001;3.925642371177673E-002;-3.221920691430569E-003;2.303796354681253E-003;
2.405666666666667E+009;1.897785067558289E-001;3.876271843910217E-002;-3.100783331319690E-003;2.310102107003331E-003;
2.405833333333334E+009;1.911146491765976E-001;3.853645920753479E-002;-2.999277785420418E-003;2.320920582860708E-003;
2.406000000000000E+009;1.920200437307358E-001;3.835814073681831E-002;-3.011253196746111E-003;2.432495355606079E-003;
2.406166666666667E+009;1.930739432573319E-001;3.817929700016975E-002;-2.980972640216351E-003;2.632909687235951E-003;
2.406333333333334E+009;1.940071731805801E-001;3.811755403876305E-002;-2.772488398477435E-003;2.752633765339851E-003;
2.406500000000000E+009;1.946285963058472E-001;3.814116120338440E-002;-2.789522521197796E-003;2.615862758830190E-003;
2.406666666666667E+009;1.952499300241470E-001;3.814735636115074E-002;-2.562285168096423E-003;2.925214124843478E-003;
2.406833333333334E+009;1.957500129938126E-001;3.799249231815338E-002;-2.563236746937037E-003;2.955047646537423E-003;
2.407000000000000E+009;1.960311233997345E-001;3.817560151219368E-002;-2.323635853827000E-003;3.123691538348794E-003;
2.407166666666667E+009;1.963075995445252E-001;3.795569017529488E-002;-2.175876172259450E-003;3.105283016338944E-003;
2.407333333333334E+009;1.961931139230728E-001;3.819184377789497E-002;-2.218002220615745E-003;3.082385985180736E-003;
2.407500000000000E+009;1.960809975862503E-001;3.815374895930290E-002;-1.943909563124180E-003;3.224346321076155E-003;
2.407666666666667E+009;1.961420625448227E-001;3.806386515498161E-002;-1.800843747332692E-003;3.215098055079579E-003;
2.407833333333334E+009;1.957772523164749E-001;3.788718208670616E-002;-1.683294307440519E-003;3.231337526813150E-003;
2.408000000000000E+009;1.956070959568024E-001;3.776995465159416E-002;-1.535772345960140E-003;3.454845165833831E-003;
2.408166666666667E+009;1.949372589588165E-001;3.738971799612045E-002;-1.403850619681180E-003;3.422079840674996E-003;
2.408333333333334E+009;1.944396346807480E-001;3.672982379794121E-002;-1.323992852121592E-003;3.348764032125473E-003;
2.408500000000000E+009;1.938168555498123E-001;3.642144799232483E-002;-1.332423067651689E-003;3.474049037322402E-003;
2.408666666666667E+009;1.931984871625900E-001;3.570716083049774E-002;-9.155911975540221E-004;3.561886027455330E-003;
2.408833333333334E+009;1.925011128187180E-001;3.500352054834366E-002;-9.831695351749659E-004;3.544057253748179E-003;
2.409000000000000E+009;1.913953572511673E-001;3.424254432320595E-002;-8.935775840654969E-004;3.568546380847693E-003;
2.409166666666667E+009;1.906309127807617E-001;3.304846212267876E-002;-6.781776901334524E-004;3.450182266533375E-003;
2.409333333333334E+009;1.897479742765427E-001;3.214384987950325E-002;-4.268382326699793E-004;3.590488573536277E-003;
2.409500000000000E+009;1.884662210941315E-001;3.071824833750725E-002;-3.446287882979959E-004;3.532111644744873E-003;
2.409666666666667E+009;1.875161528587341E-001;2.929808571934700E-002;-1.892217405838892E-004;3.537032520398498E-003;
2.409833333333334E+009;1.864939779043198E-001;2.782698534429073E-002;-1.103837494156323E-004;3.478970378637314E-003;
2.410000000000000E+009;1.854992061853409E-001;2.611470967531204E-002;-1.197363890241832E-004;3.562003839761019E-003;
2.410166666666667E+009;1.845580935478210E-001;2.424653992056847E-002;-3.113258571829647E-005;3.390825819224119E-003;
2.410333333333334E+009;1.837159097194672E-001;2.225620858371258E-002;2.028743256232701E-005;3.451509866863489E-003;
2.410500000000000E+009;1.826667636632919E-001;2.035434730350971E-002;2.466608129907399E-004;3.347736084833741E-003;
2.410666666666667E+009;1.819971054792404E-001;1.808729209005833E-002;3.134828002657741E-004;3.347081365063787E-003;
2.410833333333334E+009;1.811931878328323E-001;1.602029614150524E-002;4.617476370185614E-004;3.380091628059745E-003;
2.411000000000000E+009;1.804600507020950E-001;1.369762327522039E-002;3.306677390355617E-004;3.334390232339501E-003;
2.411166666666667E+009;1.797646731138229E-001;1.166225969791412E-002;4.292837111279368E-004;3.314336761832237E-003;
2.411333333333334E+009;1.794869899749756E-001;9.085702709853649E-003;5.178613355383277E-004;3.215448930859566E-003;
2.411500000000000E+009;1.789012551307678E-001;6.748809479176998E-003;6.268399301916361E-004;3.274543210864067E-003;
2.411666666666667E+009;1.787884235382080E-001;4.446823615580797E-003;7.382835610769689E-004;3.252447582781315E-003;
2.411833333333334E+009;1.784826666116715E-001;2.056103199720383E-003;7.198523962870240E-004;3.213200019672513E-003;
2.412000000000000E+009;1.786951571702957E-001;-4.868365940637887E-004;9.736774954944849E-004;3.136107698082924E-003;
2.412166666666667E+009;1.787065416574478E-001;-2.872003940865398E-003;9.250088478438556E-004;3.260129131376743E-003;
2.412333333333334E+009;1.790784299373627E-001;-5.328913219273090E-003;9.031271911226213E-004;3.195188473910093E-003;
2.412500000000000E+009;1.793395578861237E-001;-7.740997709333897E-003;1.122131827287376E-003;3.181802341714501E-003;
2.412666666666667E+009;1.799228787422180E-001;-1.020315289497376E-002;1.154287136159837E-003;3.036285983398557E-003;
2.412833333333334E+009;1.805931925773621E-001;-1.267240103334189E-002;1.222345279529691E-003;3.074917010962963E-003;
2.413000000000000E+009;1.813896894454956E-001;-1.492714602500200E-002;1.227316679432988E-003;3.064266173169017E-003;
2.413166666666667E+009;1.821708977222443E-001;-1.710551604628563E-002;1.250346656888723E-003;2.878108760342002E-003;
2.413333333333334E+009;1.832486093044281E-001;-1.942838914692402E-002;1.482217223383486E-003;2.999302232638001E-003;
2.413500000000000E+009;1.840842664241791E-001;-2.173015475273132E-002;1.512113376520574E-003;2.939163474366069E-003;
2.413666666666667E+009;1.852275133132935E-001;-2.384748309850693E-002;1.610870473086834E-003;3.030441235750914E-003;
2.413833333333334E+009;1.863236427307129E-001;-2.569180168211460E-002;1.708264346234500E-003;3.231527982279658E-003;
2.414000000000000E+009;1.873983740806580E-001;-2.766798436641693E-002;1.835835049860179E-003;3.235699841752648E-003;
2.414166666666667E+009;1.885109841823578E-001;-2.948877029120922E-002;2.019561361521483E-003;3.257569158449769E-003;
2.414333333333334E+009;1.895786374807358E-001;-3.129366040229797E-002;2.272556070238352E-003;3.209260525181890E-003;
2.414500000000000E+009;1.909473389387131E-001;-3.280587121844292E-002;2.362440805882216E-003;2.922697458416224E-003;
2.414666666666667E+009;1.920625120401382E-001;-3.413321077823639E-002;2.708206651732326E-003;3.092526923865080E-003;
2.414833333333334E+009;1.929902136325836E-001;-3.559266775846481E-002;2.793394960463047E-003;3.096395172178745E-003;
2.415000000000000E+009;1.941032111644745E-001;-3.677028417587280E-002;2.864517970010638E-003;2.842361107468605E-003;
2.415166666666667E+009;1.953071802854538E-001;-3.798120841383934E-002;3.217359771952033E-003;2.608105074614286E-003;
2.415333333333334E+009;1.965487748384476E-001;-3.869260847568512E-002;3.262495854869485E-003;2.429956803098321E-003;
2.415500000000000E+009;1.975969970226288E-001;-3.932407498359680E-002;3.330492414534092E-003;2.201728755608201E-003;
2.415666666666667E+009;1.985169053077698E-001;-4.028335213661194E-002;3.305191639810801E-003;2.103222766891122E-003;
2.415833333333334E+009;1.992764025926590E-001;-4.068862646818161E-002;3.532648086547852E-003;1.960223540663719E-003;
2.416000000000000E+009;2.000772356987000E-001;-4.129327088594437E-002;3.496543969959021E-003;1.785161090083420E-003;
2.416166666666667E+009;2.006978094577789E-001;-4.193462431430817E-002;3.607996972277761E-003;1.511101494543254E-003;
2.416333333333334E+009;2.014075517654419E-001;-4.208439588546753E-002;3.603338729590178E-003;1.366178970783949E-003;
2.416500000000000E+009;2.018376588821411E-001;-4.231653735041618E-002;3.747294889762998E-003;1.328652491793037E-003;
2.416666666666667E+009;2.019509226083756E-001;-4.266114905476570E-002;3.762215608730912E-003;1.074537052772939E-003;
2.416833333333334E+009;2.021386921405792E-001;-4.270004481077194E-002;3.967353142797947E-003;1.013427507132292E-003;
2.417000000000000E+009;2.023110240697861E-001;-4.273192584514618E-002;4.079240374267101E-003;7.388122612610459E-004;
2.417166666666667E+009;2.018866986036301E-001;-4.278580844402313E-002;4.131554625928402E-003;7.235118537209928E-004;
2.417333333333334E+009;2.016750574111939E-001;-4.257574304938316E-002;3.986647818237543E-003;4.085341934114695E-004;
2.417500000000000E+009;2.013976722955704E-001;-4.263101518154144E-002;4.132681060582399E-003;2.315553574590012E-004;
2.417666666666667E+009;2.007988989353180E-001;-4.239764809608460E-002;4.072348587214947E-003;-4.890461423201487E-005;
2.417833333333334E+009;2.004500329494476E-001;-4.224333167076111E-002;4.063024185597897E-003;-2.250035322504118E-004;
2.418000000000000E+009;1.996920853853226E-001;-4.206417873501778E-002;4.014975856989622E-003;-3.588531399145722E-004;
2.418166666666667E+009;1.988909989595413E-001;-4.195313155651093E-002;3.899906529113650E-003;-5.645551718771458E-004;
2.418333333333334E+009;1.979364305734634E-001;-4.182884842157364E-002;3.916551358997822E-003;-7.060549687594175E-004;
2.418500000000000E+009;1.969508677721024E-001;-4.177939891815186E-002;3.642488969489932E-003;-9.265135158784688E-004;
2.418666666666667E+009;1.960221529006958E-001;-4.185614362359047E-002;3.746541915461421E-003;-1.011209678836167E-003;
2.418833333333334E+009;1.947354674339294E-001;-4.187835752964020E-002;3.642287105321884E-003;-1.173490309156478E-003;
2.419000000000000E+009;1.933684349060059E-001;-4.216920211911202E-002;3.603352000936866E-003;-1.312646432779729E-003;
2.419166666666667E+009;1.921592503786087E-001;-4.249825328588486E-002;3.557999618351460E-003;-1.463065389543772E-003;
2.419333333333334E+009;1.907679438591003E-001;-4.301627725362778E-002;3.576698713004589E-003;-1.570108346641064E-003;
2.419500000000000E+009;1.894039511680603E-001;-4.347876831889153E-002;3.333202330395579E-003;-1.740629202686250E-003;
2.419666666666667E+009;1.876685917377472E-001;-4.435600712895393E-002;3.106411546468735E-003;-1.903665834106505E-003;
2.419833333333334E+009;1.861556470394135E-001;-4.503344371914864E-002;3.152726450935006E-003;-1.916832290589809E-003;
2.420000000000000E+009;1.847432702779770E-001;-4.592442512512207E-002;3.024851670488715E-003;-2.015522448346019E-003;
2.420166666666667E+009;1.830070316791534E-001;-4.687946662306786E-002;2.816467313095927E-003;-2.142656594514847E-003;
2.420333333333334E+009;1.815983504056931E-001;-4.823764413595200E-002;2.815975341945887E-003;-2.196150599047542E-003;
2.420500000000000E+009;1.797292828559876E-001;-4.931575804948807E-002;2.714786445721984E-003;-2.233043313026428E-003;
2.420666666666667E+009;1.782727092504501E-001;-5.065526068210602E-002;2.575624966993928E-003;-2.409338485449553E-003;
2.420833333333334E+009;1.767375916242600E-001;-5.214430391788483E-002;2.447170671075583E-003;-2.552706981077790E-003;
2.421000000000000E+009;1.754178553819656E-001;-5.383092910051346E-002;2.305567730218172E-003;-2.481986768543720E-003;
2.421166666666667E+009;1.738440245389938E-001;-5.528071895241737E-002;2.042616484686732E-003;-2.514691092073917E-003;
2.421333333333334E+009;1.722370982170105E-001;-5.705378204584122E-002;1.921384711749852E-003;-2.481485484167934E-003;
2.421500000000000E+009;1.709505319595337E-001;-5.884663388133049E-002;1.997707877308130E-003;-2.640749095007777E-003;
2.421666666666667E+009;1.698452532291412E-001;-6.056073680520058E-002;1.760843093506992E-003;-2.714908216148615E-003;
2.421833333333334E+009;1.687304079532623E-001;-6.248482316732407E-002;1.790265552699566E-003;-2.663800260052085E-003;
2.422000000000000E+009;1.676728278398514E-001;-6.438453495502472E-002;1.611126237548888E-003;-2.648679772391915E-003;
2.422166666666667E+009;1.668343096971512E-001;-6.654845923185349E-002;1.749698771163821E-003;-2.709042746573687E-003;
2.422333333333334E+009;1.660528630018234E-001;-6.856808811426163E-002;1.393033657222986E-003;-2.801082329824567E-003;
2.422500000000000E+009;1.651286482810974E-001;-7.032725214958191E-002;1.431011944077909E-003;-2.896481426432729E-003;
2.422666666666667E+009;1.644689589738846E-001;-7.235582172870636E-002;1.362144947052002E-003;-2.903719898313284E-003;
2.422833333333334E+009;1.639695614576340E-001;-7.448507100343704E-002;1.156072947196662E-003;-2.935919445008040E-003;
2.423000000000000E+009;1.635346114635468E-001;-7.643372565507889E-002;1.204638043418527E-003;-3.079046960920095E-003;
2.423166666666667E+009;1.630594879388809E-001;-7.850883901119232E-002;8.799266070127487E-004;-2.875426318496466E-003;
2.423333333333334E+009;1.628712862730026E-001;-8.031039685010910E-002;9.136237786151469E-004;-3.017763141542673E-003;
2.423500000000000E+009;1.629080176353455E-001;-8.201814442873001E-002;5.835545016452670E-004;-3.090441692620516E-003;
2.423666666666667E+009;1.628040820360184E-001;-8.379518985748291E-002;5.149164353497326E-004;-3.133701160550118E-003;
2.423833333333334E+009;1.626814901828766E-001;-8.554998785257340E-002;5.135417450219393E-004;-2.964756218716502E-003;
2.424000000000000E+009;1.629711687564850E-001;-8.747504651546478E-002;1.533407776150852E-004;-3.086157375946641E-003;
2.424166666666667E+009;1.629448980093002E-001;-8.899982273578644E-002;3.002626181114465E-004;-3.112552687525749E-003;
2.424333333333334E+009;1.634084135293961E-001;-9.035862237215042E-002;1.001718374027405E-005;-2.942757681012154E-003;
2.424500000000000E+009;1.635946035385132E-001;-9.215506911277771E-002;-7.300874858628959E-005;-2.915004733949900E-003;
2.424666666666667E+009;1.639326214790344E-001;-9.335556626319885E-002;-1.059224159689620E-004;-2.945505315437913E-003;
2.424833333333334E+009;1.643495708703995E-001;-9.468150883913040E-002;-1.851418055593967E-004;-2.903659362345934E-003;
2.425000000000000E+009;1.647851020097733E-001;-9.570491313934326E-002;-1.888348342617974E-004;-2.769868820905685E-003;
2.425166666666667E+009;1.650285422801971E-001;-9.678263962268829E-002;-5.355657776817679E-004;-2.740985481068492E-003;
2.425333333333334E+009;1.653080135583878E-001;-9.770521521568298E-002;-4.253193328622729E-004;-2.786240540444851E-003;
2.425500000000000E+009;1.657657623291016E-001;-9.858544915914536E-002;-5.165837937965989E-004;-2.832262078300118E-003;
2.425666666666667E+009;1.661545187234879E-001;-9.930820018053055E-002;-8.195085101760924E-004;-2.616616897284985E-003;
2.425833333333334E+009;1.664807051420212E-001;-1.000728905200958E-001;-8.245441131293774E-004;-2.671971218660474E-003;
2.426000000000000E+009;1.669144332408905E-001;-1.004410982131958E-001;-9.351605549454689E-004;-2.656392287462950E-003;
2.426166666666667E+009;1.671837568283081E-001;-1.009658202528954E-001;-1.159650739282370E-003;-2.522427123039961E-003;
2.426333333333334E+009;1.673747748136520E-001;-1.014635264873505E-001;-1.217054785229266E-003;-2.601468004286289E-003;
2.426500000000000E+009;1.677377223968506E-001;-1.016420498490334E-001;-1.401312300004065E-003;-2.458392642438412E-003;
2.426666666666667E+009;1.678783297538757E-001;-1.019981652498245E-001;-1.244979910552502E-003;-2.426630817353725E-003;
2.426833333333334E+009;1.681623011827469E-001;-1.023369953036308E-001;-1.365578733384609E-003;-2.282755216583610E-003;
2.427000000000000E+009;1.681760102510452E-001;-1.024632677435875E-001;-1.514061586931348E-003;-2.159394090995193E-003;
2.427166666666667E+009;1.681332737207413E-001;-1.026771888136864E-001;-1.521184807643294E-003;-2.123130252584815E-003;
2.427333333333334E+009;1.679406911134720E-001;-1.028705984354019E-001;-1.486258697696030E-003;-2.086769556626678E-003;
2.427500000000000E+009;1.677381247282028E-001;-1.029850170016289E-001;-1.627155463211238E-003;-1.945542171597481E-003;
2.427666666666667E+009;1.673517674207687E-001;-1.030815616250038E-001;-1.614380511455238E-003;-1.850243890658021E-003;
2.427833333333334E+009;1.670119166374207E-001;-1.032629162073135E-001;-1.715226215310395E-003;-1.840385375544429E-003;
