# Version 1.00
#
freq[Hz];re:Trc1_S11;im:Trc1_S11;re:Trc2_S21;im:Trc2_S21;
2.400000000000000E+009;1.553410291671753E-001;1.066159754991531E-001;-3.366187680512667E-003;-1.940981135703623E-003;
2.400166666666667E+009;1.552500724792481E-001;1.043195724487305E-001;-3.270073560997844E-003;-1.701181638054550E-003;
2.400333333333334E+009;1.552594900131226E-001;1.020308211445808E-001;-3.437334438785911E-003;-1.519773155450821E-003;
2.400500000000000E+009;1.549564152956009E-001;9.918763488531113E-002;-3.582851728424430E-003;-1.498495228588581E-003;
2.400666666666667E+009;1.554069370031357E-001;9.668281674385071E-002;-3.438397543504834E-003;-1.260663731954992E-003;
2.400833333333334E+009;1.553095430135727E-001;9.381420910358429E-002;-3.534275107085705E-003;-1.167832291685045E-003;
2.401000000000000E+009;1.555715650320053E-001;9.090092033147812E-002;-3.514754585921764E-003;-1.244532060809434E-003;
2.401166666666667E+009;1.556261777877808E-001;8.825615048408508E-002;-3.451339202001691E-003;-1.150842872448266E-003;
2.401333333333334E+009;1.561158895492554E-001;8.561483025550842E-002;-3.410100005567074E-003;-9.614690789021552E-004;
2.401500000000000E+009;1.564680486917496E-001;8.259090036153793E-002;-3.565615974366665E-003;-1.049358863383532E-003;
2.401666666666667E+009;1.568922698497772E-001;7.971106469631195E-002;-3.454259829595685E-003;-8.570487843826413E-004;
2.401833333333334E+009;1.573913991451263E-001;7.707116007804871E-002;-3.423093352466822E-003;-8.856878266669810E-004;
2.402000000000000E+009;1.582282781600952E-001;7.437492907047272E-002;-3.481275867670775E-003;-8.917985833249986E-004;
2.402166666666667E+009;1.590557545423508E-001;7.187556475400925E-002;-3.490407485514879E-003;-7.395040011033416E-004;
2.402333333333334E+009;1.602195352315903E-001;6.925411522388458E-002;-3.808032022789121E-003;-8.163857855834067E-004;
2.402500000000000E+009;1.612694710493088E-001;6.674201786518097E-002;-3.605945734307170E-003;-5.454204510897398E-004;
2.402666666666667E+009;1.625368148088455E-001;6.441789120435715E-002;-3.762045409530401E-003;-5.073891952633858E-004;
2.402833333333334E+009;1.638539135456085E-001;6.190290674567223E-002;-3.781134961172938E-003;-4.574969643726945E-004;
2.403000000000000E+009;1.654996126890183E-001;5.974624678492546E-002;-3.923111129552126E-003;-3.388179466128349E-004;
2.403166666666667E+009;1.669228374958038E-001;5.754780769348145E-002;-4.104706458747387E-003;-1.546495041111484E-004;
2.403333333333334E+009;1.684771776199341E-001;5.539375171065331E-002;-4.165079444646835E-003;5.184184192330577E-005;
2.403500000000000E+009;1.701933294534683E-001;5.342330783605576E-002;-4.200413823127747E-003;1.295380061492324E-004;
2.403666666666667E+009;1.719367206096649E-001;5.143103748559952E-002;-4.202039912343025E-003;5.033783963881433E-004;
2.403833333333334E+009;1.735762506723404E-001;4.956684634089470E-002;-4.187523853033781E-003;6.778715760447085E-004;
2.404000000000000E+009;1.751712113618851E-001;4.785767942667007E-002;-4.187812563031912E-003;8.712338167242706E-004;
2.404166666666667E+009;1.770302653312683E-001;4.626321792602539E-002;-4.240788053721190E-003;1.157152582891285E-003;
2.404333333333334E+009;1.785183101892471E-001;4.479445889592171E-002;-3.940131049603224E-003;1.246281550265849E-003;
2.404500000000000E+009;1.802443265914917E-001;4.339186847209930E-002;-3.857510397210717E-003;1.567496685311198E-003;
2.404666666666667E+009;1.818358451128006E-001;4.230305925011635E-002;-3.662374801933765E-003;1.751280273310840E-003;
2.404833333333334E+009;1.834908574819565E-001;4.130899906158447E-002;-3.589884378015995E-003;1.748265698552132E-003;
2.405000000000000E+009;1.847376078367233E-001;4.052260518074036E-002;-3.409363096579909E-003;1.778437057510018E-003;
2.405166666666667E+009;1.860211640596390E-001;3.977638483047485E-002;-3.516415366902947E-003;1.823698170483112E-003;
2.405333333333334E+009;1.876878887414932E-001;3.936751186847687E-002;-3.361665178090334E-003;2.002939349040389E-003;
2.405500000000000E+009;1.887770891189575E-001;3.890126198530197E-002;-3.223443869501352E-003;2.223738469183445E-003;
2.405666666666667E+009;1.902284026145935E-001;3.838782757520676E-002;-3.168265568092465E-003;2.179225208237767E-003;
2.405833333333334E+009;1.913399547338486E-001;3.813106939196587E-002;-3.071193117648363E-003;2.313904929906130E-003;
2.406000000000000E+009;1.923162788152695E-001;3.804451599717140E-002;-3.067087614908814E-003;2.504308708012104E-003;
2.406166666666667E+009;1.932979822158814E-001;3.770146891474724E-002;-2.969089196994901E-003;2.562262583523989E-003;
2.406333333333334E+009;1.941593289375305E-001;3.784676641225815E-002;-2.954425755888224E-003;2.758644754067063E-003;
2.406500000000000E+009;1.949286460876465E-001;3.785491734743118E-002;-2.769011771306396E-003;2.850140910595655E-003;
2.406666666666667E+009;1.955040544271469E-001;3.780538961291313E-002;-2.765590790659189E-003;2.890247153118253E-003;
2.406833333333334E+009;1.958840191364288E-001;3.782274946570396E-002;-2.553303027525544E-003;3.023424884304404E-003;
2.407000000000000E+009;1.961563974618912E-001;3.794490545988083E-002;-2.448799088597298E-003;3.107061143964529E-003;
2.407166666666667E+009;1.965403258800507E-001;3.775373101234436E-002;-2.155856462195516E-003;3.215484786778688E-003;
2.407333333333334E+009;1.963766366243362E-001;3.781111910939217E-002;-2.146083395928145E-003;3.213763469830155E-003;
2.407500000000000E+009;1.963859051465988E-001;3.793421760201454E-002;-1.931482693180442E-003;3.200846491381526E-003;
2.407666666666667E+009;1.964243650436401E-001;3.783494234085083E-002;-2.011914504691958E-003;3.471617819741368E-003;
2.407833333333334E+009;1.958146542310715E-001;3.755499422550201E-002;-1.813933020457625E-003;3.452168777585030E-003;
2.408000000000000E+009;1.957324147224426E-001;3.756381943821907E-002;-1.632976462133229E-003;3.362595336511731E-003;
2.408166666666667E+009;1.951272636651993E-001;3.699716553092003E-002;-1.557784620672464E-003;3.669937606900930E-003;
2.408333333333334E+009;1.946236640214920E-001;3.652276471257210E-002;-1.388906734064221E-003;3.546929685398936E-003;
2.408500000000000E+009;1.938046365976334E-001;3.605899959802628E-002;-1.264386577531695E-003;3.427444258704782E-003;
2.408666666666667E+009;1.933934241533279E-001;3.558747470378876E-002;-1.307229162193835E-003;3.568650223314762E-003;
2.408833333333334E+009;1.926170587539673E-001;3.473860770463944E-002;-1.071844017133117E-003;3.532086964696646E-003;
2.409000000000000E+009;1.915653645992279E-001;3.377404436469078E-002;-9.642578661441803E-004;3.651033155620098E-003;
2.409166666666667E+009;1.906515210866928E-001;3.270104527473450E-002;-9.407053003087640E-004;3.689906559884548E-003;
2.409333333333334E+009;1.898134201765060E-001;3.170339390635490E-002;-6.935949786566198E-004;3.608776256442070E-003;
2.409500000000000E+009;1.887711137533188E-001;3.024245053529739E-002;-4.996283096261323E-004;3.674861509352922E-003;
2.409666666666667E+009;1.875804513692856E-001;2.907962165772915E-002;-4.704784078057855E-004;3.647838486358523E-003;
2.409833333333334E+009;1.866624057292938E-001;2.744164504110813E-002;-2.682501799426973E-004;3.541779704391956E-003;
2.410000000000000E+009;1.856044530868530E-001;2.577080763876438E-002;-2.433457411825657E-004;3.544627921655774E-003;
2.410166666666667E+009;1.846186965703964E-001;2.388044074177742E-002;-7.331148663070053E-005;3.420875873416662E-003;
2.410333333333334E+009;1.838407963514328E-001;2.207577228546143E-002;-5.169517680769786E-005;3.458173479884863E-003;
2.410500000000000E+009;1.827912330627441E-001;2.017976529896259E-002;1.130460441345349E-004;3.433170961216092E-003;
2.410666666666667E+009;1.819221973419190E-001;1.785474456846714E-002;3.821397840511054E-004;3.366672201082110E-003;
2.410833333333334E+009;1.811833679676056E-001;1.568360440433025E-002;1.867872924776748E-004;3.426282899454236E-003;
2.411000000000000E+009;1.805611252784729E-001;1.347646769136190E-002;3.446469490882009E-004;3.333654720336199E-003;
2.411166666666667E+009;1.797846555709839E-001;1.133204717189074E-002;3.337779780849814E-004;3.312513232231140E-003;
2.411333333333334E+009;1.794708818197250E-001;8.692268282175064E-003;3.489246591925621E-004;3.247123910114169E-003;
2.411500000000000E+009;1.789268851280212E-001;6.404699292033911E-003;5.924006109125912E-004;3.467157017439604E-003;
2.411666666666667E+009;1.789814680814743E-001;4.032686352729797E-003;6.749956519342959E-004;3.257713746279478E-003;
2.411833333333334E+009;1.784922331571579E-001;1.633559702895582E-003;7.709735073149204E-004;3.267287975177169E-003;
2.412000000000000E+009;1.786963492631912E-001;-8.730124682188034E-004;6.709010340273380E-004;3.218014724552631E-003;
2.412166666666667E+009;1.788572221994400E-001;-3.183107124641538E-003;9.196540340781212E-004;3.213788149878383E-003;
2.412333333333334E+009;1.789547502994537E-001;-5.715565755963326E-003;9.321937686763704E-004;3.148226300254464E-003;
2.412500000000000E+009;1.793826371431351E-001;-8.146229200065136E-003;1.036140602082014E-003;3.093016799539328E-003;
2.412666666666667E+009;1.798330992460251E-001;-1.053307764232159E-002;9.856615215539932E-004;3.034062916412950E-003;
2.412833333333334E+009;1.805442124605179E-001;-1.287724170833826E-002;1.181917148642242E-003;3.177255392074585E-003;
2.413000000000000E+009;1.813702136278153E-001;-1.535498257726431E-002;1.186029636301100E-003;3.103966824710369E-003;
2.413166666666667E+009;1.820364892482758E-001;-1.736924797296524E-002;1.249217893928289E-003;3.103019203990698E-003;
2.413333333333334E+009;1.831099092960358E-001;-1.970622316002846E-002;1.249134656973183E-003;3.079015761613846E-003;
2.413500000000000E+009;1.838534325361252E-001;-2.195046655833721E-002;1.434397068805993E-003;3.125977003946900E-003;
2.413666666666667E+009;1.850462555885315E-001;-2.399388514459133E-002;1.449742238037288E-003;3.161930479109287E-003;
2.413833333333334E+009;1.861384212970734E-001;-2.605239115655422E-002;1.549696899019182E-003;3.228935645893216E-003;
2.414000000000000E+009;1.871868073940277E-001;-2.792041189968586E-002;1.847481937147677E-003;3.172074211761355E-003;
2.414166666666667E+009;1.884916722774506E-001;-2.961967326700687E-002;2.077559474855661E-003;3.299066098406911E-003;
2.414333333333334E+009;1.893531084060669E-001;-3.166314959526062E-002;2.179770963266492E-003;3.199794329702854E-003;
2.414500000000000E+009;1.907337456941605E-001;-3.310058638453484E-002;2.403857186436653E-003;3.089469624683261E-003;
2.414666666666667E+009;1.918136775493622E-001;-3.442113101482391E-002;2.681972458958626E-003;3.180903382599354E-003;
2.414833333333334E+009;1.928767859935761E-001;-3.575533255934715E-002;2.863172208890319E-003;3.068136982619762E-003;
2.415000000000000E+009;1.939812302589417E-001;-3.695000708103180E-002;2.992095658555627E-003;2.783427713438869E-003;
2.415166666666667E+009;1.951353549957275E-001;-3.806485608220100E-002;3.240302903577685E-003;2.708175918087363E-003;
2.415333333333334E+009;1.962548196315765E-001;-3.900246322154999E-002;3.179692896082997E-003;2.529720775783062E-003;
2.415500000000000E+009;1.973588019609451E-001;-3.971115872263908E-002;3.431904828175902E-003;2.248612698167563E-003;
2.415666666666667E+009;1.983100473880768E-001;-4.042107239365578E-002;3.460673615336418E-003;2.256961539387703E-003;
2.415833333333334E+009;1.991012245416641E-001;-4.106154665350914E-002;3.646559081971645E-003;2.029143972322345E-003;
2.416000000000000E+009;1.998358666896820E-001;-4.152563214302063E-002;3.720969660207629E-003;1.778506208211184E-003;
2.416166666666667E+009;2.005497217178345E-001;-4.204203188419342E-002;3.684165421873331E-003;1.421488006599248E-003;
2.416333333333334E+009;2.011924088001251E-001;-4.230854660272598E-002;3.685412928462029E-003;1.635957509279251E-003;
2.416500000000000E+009;2.016191333532333E-001;-4.257212951779366E-002;3.664719639346004E-003;1.270536449737847E-003;
2.416666666666667E+009;2.018470466136932E-001;-4.293375462293625E-002;3.772134659811854E-003;1.127463998273015E-003;
2.416833333333334E+009;2.018993794918060E-001;-4.284470528364182E-002;4.179886076599360E-003;1.095014973543584E-003;
2.417000000000000E+009;2.020376026630402E-001;-4.299540817737579E-002;4.049629904329777E-003;8.726610685698688E-004;
2.417166666666667E+009;2.018028348684311E-001;-4.294362291693687E-002;3.950504586100578E-003;7.747368654236198E-004;
2.417333333333334E+009;2.015196830034256E-001;-4.286661371588707E-002;4.263564944267273E-003;4.832586564589292E-004;
2.417500000000000E+009;2.011607140302658E-001;-4.279664903879166E-002;4.163419827818871E-003;2.804798714350909E-004;
2.417666666666667E+009;2.006955444812775E-001;-4.260114952921867E-002;4.176433663815260E-003;1.868480758275837E-004;
2.417833333333334E+009;2.001471966505051E-001;-4.242900758981705E-002;4.134939052164555E-003;-1.647733733989298E-004;
2.418000000000000E+009;1.994598209857941E-001;-4.221807047724724E-002;4.146511666476727E-003;-2.365110849495977E-004;
2.418166666666667E+009;1.986205577850342E-001;-4.210134595632553E-002;4.024199210107327E-003;-5.897022201679647E-004;
2.418333333333334E+009;1.978146731853485E-001;-4.191001877188683E-002;4.126117564737797E-003;-7.061260403133929E-004;
2.418500000000000E+009;1.967168599367142E-001;-4.199235886335373E-002;3.932904917746782E-003;-8.218625443987548E-004;
2.418666666666667E+009;1.957512497901917E-001;-4.196042567491531E-002;3.964937292039394E-003;-9.565104264765978E-004;
2.418833333333334E+009;1.945367306470871E-001;-4.230395704507828E-002;3.771263407543302E-003;-1.164722838439047E-003;
2.419000000000000E+009;1.932336986064911E-001;-4.241742566227913E-002;3.798520658165216E-003;-1.180967665277422E-003;
2.419166666666667E+009;1.919070482254028E-001;-4.273653402924538E-002;3.480916842818260E-003;-1.334608648903668E-003;
2.419333333333334E+009;1.906633526086807E-001;-4.315143451094627E-002;3.469652729108930E-003;-1.357469707727432E-003;
2.419500000000000E+009;1.891492456197739E-001;-4.377415031194687E-002;3.445807378739119E-003;-1.638071844354272E-003;
2.419666666666667E+009;1.875719279050827E-001;-4.446377605199814E-002;3.175042336806655E-003;-1.823917613364756E-003;
2.419833333333334E+009;1.858840137720108E-001;-4.518748074769974E-002;3.170487238094211E-003;-1.826842548325658E-003;
2.420000000000000E+009;1.844338476657867E-001;-4.611121118068695E-002;3.112866543233395E-003;-2.018957398831844E-003;
2.420166666666667E+009;1.827774643898010E-001;-4.703934863209724E-002;3.024092409759760E-003;-2.063256455585361E-003;
2.420333333333334E+009;1.813479065895081E-001;-4.826707392930985E-002;3.005551872774959E-003;-2.165988087654114E-003;
2.420500000000000E+009;1.796894222497940E-001;-4.964875057339668E-002;2.955932170152664E-003;-2.302699256688356E-003;
2.420666666666667E+009;1.781035512685776E-001;-5.074393749237061E-002;2.705320017412305E-003;-2.309244358912110E-003;
2.420833333333334E+009;1.764671206474304E-001;-5.219650268554688E-002;2.474962035194039E-003;-2.442870056256652E-003;
2.421000000000000E+009;1.749931275844574E-001;-5.384584888815880E-002;2.372073009610176E-003;-2.349297050386667E-003;
2.421166666666667E+009;1.735727339982987E-001;-5.546038970351219E-002;2.209566533565521E-003;-2.538244705647230E-003;
2.421333333333334E+009;1.720473021268845E-001;-5.697002634406090E-002;2.211642684414983E-003;-2.654094481840730E-003;
2.421500000000000E+009;1.710303425788879E-001;-5.892618373036385E-002;2.060286002233625E-003;-2.607171656563878E-003;
2.421666666666667E+009;1.697377860546112E-001;-6.074003875255585E-002;1.920266891829670E-003;-2.635931828990579E-003;
2.421833333333334E+009;1.684853136539459E-001;-6.258507072925568E-002;1.979315886273980E-003;-2.730595879256725E-003;
2.422000000000000E+009;1.674659103155136E-001;-6.449618190526962E-002;1.681067980825901E-003;-2.774641849100590E-003;
2.422166666666667E+009;1.665970832109451E-001;-6.658636033535004E-002;1.667812699452043E-003;-2.798384288325906E-003;
2.422333333333334E+009;1.657672077417374E-001;-6.862875819206238E-002;1.565810060128570E-003;-2.659337827935815E-003;
2.422500000000000E+009;1.649781912565231E-001;-7.051189243793488E-002;1.487419242039323E-003;-2.782959956675768E-003;
2.422666666666667E+009;1.643458157777786E-001;-7.236810773611069E-002;1.311430707573891E-003;-3.054113127291203E-003;
2.422833333333334E+009;1.637972444295883E-001;-7.442116737365723E-002;1.406689058057964E-003;-2.810236997902393E-003;
2.423000000000000E+009;1.632844060659409E-001;-7.650345563888550E-002;1.305654877796769E-003;-2.930845133960247E-003;
2.423166666666667E+009;1.629430949687958E-001;-7.836768776178360E-002;1.078238477930427E-003;-2.888611052185297E-003;
2.423333333333334E+009;1.627740412950516E-001;-8.035297691822052E-002;9.876000694930553E-004;-3.124294802546501E-003;
2.423500000000000E+009;1.625769287347794E-001;-8.215061575174332E-002;8.787394617684186E-004;-3.262836486101151E-003;
2.423666666666667E+009;1.627015471458435E-001;-8.390682190656662E-002;6.068445509299636E-004;-3.187168389558792E-003;
2.423833333333334E+009;1.625532805919647E-001;-8.564323931932449E-002;4.987319116480649E-004;-3.143648616969585E-003;
2.424000000000000E+009;1.626009494066238E-001;-8.753257989883423E-002;3.843907907139510E-004;-3.181162290275097E-003;
2.424166666666667E+009;1.628140658140183E-001;-8.868486434221268E-002;1.670396159170196E-004;-3.107509110122919E-003;
2.424333333333334E+009;1.629998087882996E-001;-9.050521254539490E-002;8.180668373825029E-006;-3.153351834043860E-003;
2.424500000000000E+009;1.632961332798004E-001;-9.211470931768417E-002;-2.403861981292721E-005;-2.986137056723237E-003;
2.424666666666667E+009;1.635968387126923E-001;-9.340739995241165E-002;-1.628925929253455E-005;-2.987900981679559E-003;
2.424833333333334E+009;1.642031967639923E-001;-9.453785419464111E-002;-1.415789301972836E-004;-2.921502804383636E-003;
2.425000000000000E+009;1.644769906997681E-001;-9.569285809993744E-002;-2.841619716491550E-004;-2.935285679996014E-003;
2.425166666666667E+009;1.648491322994232E-001;-9.675638377666473E-002;-3.891272644978017E-004;-3.043192205950618E-003;
2.425333333333334E+009;1.651024967432022E-001;-9.781017154455185E-002;-5.377110210247338E-004;-3.033121349290013E-003;
2.425500000000000E+009;1.656618863344193E-001;-9.861187636852264E-002;-7.566741551272571E-004;-2.902189968153834E-003;
2.425666666666667E+009;1.658450812101364E-001;-9.927662461996079E-002;-7.170875323936343E-004;-2.831462072208524E-003;
2.425833333333334E+009;1.662706583738327E-001;-1.000431105494499E-001;-8.788607083261013E-004;-2.840150380507112E-003;
2.426000000000000E+009;1.666165739297867E-001;-1.004552319645882E-001;-9.802803397178650E-004;-2.637528348714113E-003;
2.426166666666667E+009;1.669692248106003E-001;-1.008086875081062E-001;-1.003620098344982E-003;-2.778858179226518E-003;
2.426333333333334E+009;1.671021282672882E-001;-1.014000698924065E-001;-1.250828965567052E-003;-2.699553500860930E-003;
2.426500000000000E+009;1.675313860177994E-001;-1.015563681721687E-001;-1.240012352354825E-003;-2.573970006778836E-003;
2.426666666666667E+009;1.676172465085983E-001;-1.019393131136894E-001;-1.351588172838092E-003;-2.489384962245822E-003;
2.426833333333334E+009;1.678884625434876E-001;-1.022259145975113E-001;-1.454634359106422E-003;-2.396198455244303E-003;
2.427000000000000E+009;1.678295731544495E-001;-1.024200469255447E-001;-1.404779613949359E-003;-2.227107761427760E-003;
2.427166666666667E+009;1.678798645734787E-001;-1.025022268295288E-001;-1.500673126429319E-003;-2.191515173763037E-003;
2.427333333333334E+009;1.677607446908951E-001;-1.028178334236145E-001;-1.606990932486951E-003;-2.122271107509732E-003;
2.427500000000000E+009;1.675157397985458E-001;-1.029053032398224E-001;-1.690737670287490E-003;-1.951200421899557E-003;
2.427666666666667E+009;1.670986562967300E-001;-1.029400900006294E-001;-1.739491475746036E-003;-2.000752370804548E-003;
2.427833333333334E+009;1.667269021272659E-001;-1.031275093555450E-001;-1.714320736937225E-003;-1.849200692959130E-003;
