# Version 1.00
#
freq[Hz];re:Trc1_S11;im:Trc1_S11;re:Trc2_S21;im:Trc2_S21;
2.400000000000000E+009;1.678992807865143E-001;4.688050597906113E-002;-1.863548415713012E-003;-1.816011033952236E-003;
2.400166666666667E+009;1.687296926975250E-001;4.576266556978226E-002;-2.247788943350315E-003;-2.027441747486591E-003;
2.400333333333334E+009;1.695985794067383E-001;4.448527097702026E-002;-2.380572492256761E-003;-2.132077701389790E-003;
2.400500000000000E+009;1.706704944372177E-001;4.355209693312645E-002;-2.608430106192827E-003;-2.105896128341556E-003;
2.400666666666667E+009;1.713560670614243E-001;4.239835962653160E-002;-2.928255125880241E-003;-2.112199086695910E-003;
2.400833333333334E+009;1.722669452428818E-001;4.174020513892174E-002;-3.248723689466715E-003;-2.065442502498627E-003;
2.401000000000000E+009;1.732183545827866E-001;4.072416946291924E-002;-3.483510576188564E-003;-2.083252649754286E-003;
2.401166666666667E+009;1.738081574440002E-001;3.999365866184235E-002;-3.661281196400523E-003;-1.930121914483607E-003;
2.401333333333334E+009;1.745122671127319E-001;3.925665840506554E-002;-3.961087670177221E-003;-1.983445137739182E-003;
2.401500000000000E+009;1.754443943500519E-001;3.851633891463280E-002;-4.278836306184530E-003;-1.686202478595078E-003;
2.401666666666667E+009;1.760813146829605E-001;3.794693946838379E-002;-4.564173519611359E-003;-1.547776279039681E-003;
2.401833333333334E+009;1.766362041234970E-001;3.728536888957024E-002;-4.893892910331488E-003;-1.466067275032401E-003;
2.402000000000000E+009;1.770450025796890E-001;3.659254312515259E-002;-5.301283672451973E-003;-1.110096345655620E-003;
2.402166666666667E+009;1.774089485406876E-001;3.588415309786797E-002;-5.512543488293886E-003;-8.433854090981185E-004;
2.402333333333334E+009;1.779884845018387E-001;3.538129478693008E-002;-5.743446759879589E-003;-6.031345692463219E-004;
2.402500000000000E+009;1.784065216779709E-001;3.491089493036270E-002;-5.945750512182713E-003;-3.927052894141525E-004;
2.402666666666667E+009;1.786933988332748E-001;3.403159603476524E-002;-6.110317539423704E-003;1.135852799052373E-004;
2.402833333333334E+009;1.788984388113022E-001;3.347469493746758E-002;-6.162104662507772E-003;5.565074970945716E-004;
2.403000000000000E+009;1.790200769901276E-001;3.265580162405968E-002;-6.394864525645971E-003;8.112058858387172E-004;
2.403166666666667E+009;1.791372746229172E-001;3.178882598876953E-002;-6.339839193969965E-003;1.270862063392997E-003;
2.403333333333334E+009;1.790207177400589E-001;3.093277476727963E-002;-6.390450056642294E-003;1.605414319783449E-003;
2.403500000000000E+009;1.789252012968063E-001;3.012506663799286E-002;-6.373894400894642E-003;2.194085856899619E-003;
2.403666666666667E+009;1.788715720176697E-001;2.913398295640945E-002;-6.484815850853920E-003;2.391643356531858E-003;
2.403833333333334E+009;1.785944998264313E-001;2.791214175522327E-002;-6.320940330624580E-003;2.828159369528294E-003;
2.404000000000000E+009;1.782510727643967E-001;2.689206227660179E-002;-6.287177558988333E-003;3.307226113975048E-003;
2.404166666666667E+009;1.778609901666641E-001;2.584897913038731E-002;-6.262395065277815E-003;3.523559542372823E-003;
2.404333333333334E+009;1.776337325572968E-001;2.452711015939713E-002;-6.034521386027336E-003;4.142606165260077E-003;
2.404500000000000E+009;1.772622764110565E-001;2.333234809339047E-002;-5.800574086606503E-003;4.396871663630009E-003;
2.404666666666667E+009;1.768416017293930E-001;2.205783501267433E-002;-5.555489100515842E-003;4.778613336384296E-003;
2.404833333333334E+009;1.763681322336197E-001;2.048465982079506E-002;-5.377618595957756E-003;5.098229274153709E-003;
2.405000000000000E+009;1.759179979562759E-001;1.910041272640228E-002;-4.959898535162211E-003;5.381881259381771E-003;
2.405166666666667E+009;1.754757314920425E-001;1.768901385366917E-002;-4.672993905842304E-003;5.783294793218374E-003;
2.405333333333334E+009;1.751461178064346E-001;1.582955010235310E-002;-4.387393593788147E-003;6.004717200994492E-003;
2.405500000000000E+009;1.747178584337235E-001;1.433164626359940E-002;-4.088508430868387E-003;6.223283708095551E-003;
2.405666666666667E+009;1.743046194314957E-001;1.266120094805956E-002;-3.607384627684951E-003;6.304206326603890E-003;
2.405833333333334E+009;1.739052534103394E-001;1.100577879697084E-002;-3.202480264008045E-003;6.676577031612396E-003;
2.406000000000000E+009;1.738261580467224E-001;9.089919738471508E-003;-3.009488107636571E-003;6.779057905077934E-003;
2.406166666666667E+009;1.733609139919281E-001;7.394628599286079E-003;-2.594398101791740E-003;6.828741636127234E-003;
2.406333333333334E+009;1.733808219432831E-001;5.519830156117678E-003;-2.149894367903471E-003;6.997905205935240E-003;
2.406500000000000E+009;1.730644106864929E-001;3.542618127539754E-003;-1.891362597234547E-003;7.037546485662460E-003;
2.406666666666667E+009;1.729742288589478E-001;1.653057872317731E-003;-1.335958600975573E-003;7.174076046794653E-003;
2.406833333333334E+009;1.730265915393829E-001;-5.017322255298495E-004;-9.155612788163126E-004;7.255681790411472E-003;
2.407000000000000E+009;1.731559187173843E-001;-2.597461221739650E-003;-6.827646866440773E-004;7.132314145565033E-003;
2.407166666666667E+009;1.732920855283737E-001;-4.451615270227194E-003;-2.441879187244922E-004;7.271018344908953E-003;
2.407333333333334E+009;1.733896881341934E-001;-6.662605796009302E-003;2.660617465153337E-004;6.961192004382610E-003;
2.407500000000000E+009;1.735586971044540E-001;-8.665125817060471E-003;4.909224808216095E-004;6.914130877703428E-003;
2.407666666666667E+009;1.740713715553284E-001;-1.076747290790081E-002;8.710615220479667E-004;6.888624280691147E-003;
2.407833333333334E+009;1.740429252386093E-001;-1.273311953991652E-002;1.230930211022496E-003;6.953525822609663E-003;
2.408000000000000E+009;1.744022816419601E-001;-1.498314831405878E-002;1.443702960386872E-003;6.616220343858004E-003;
2.408166666666667E+009;1.747900843620300E-001;-1.667363941669464E-002;1.767408335581422E-003;6.327239796519280E-003;
2.408333333333334E+009;1.753114759922028E-001;-1.871467940509319E-002;1.970157725736499E-003;6.105673033744097E-003;
2.408500000000000E+009;1.755755990743637E-001;-2.071377635002136E-002;2.329910174012184E-003;5.881283897906542E-003;
2.408666666666667E+009;1.760190874338150E-001;-2.262447215616703E-002;2.339116763323546E-003;5.619541741907597E-003;
2.408833333333334E+009;1.762676090002060E-001;-2.435851655900478E-002;2.508654026314616E-003;5.445742513984442E-003;
2.409000000000000E+009;1.765842586755753E-001;-2.598785795271397E-002;2.703784964978695E-003;5.192060023546219E-003;
2.409166666666667E+009;1.771296262741089E-001;-2.753367461264134E-002;2.837756881490350E-003;5.078181158751249E-003;
2.409333333333334E+009;1.776250451803207E-001;-2.897889539599419E-002;3.011989872902632E-003;4.716172348707914E-003;
2.409500000000000E+009;1.779097467660904E-001;-3.043384291231632E-002;3.022249089553952E-003;4.503201227635145E-003;
2.409666666666667E+009;1.783902943134308E-001;-3.168748691678047E-002;3.118318505585194E-003;4.435469862073660E-003;
2.409833333333334E+009;1.786244064569473E-001;-3.279663249850273E-002;3.077332163229585E-003;4.382757935672998E-003;
2.410000000000000E+009;1.792861819267273E-001;-3.384654223918915E-002;3.242278005927801E-003;4.158136434853077E-003;
2.410166666666667E+009;1.797482222318649E-001;-3.485845401883125E-002;3.250036155804992E-003;4.083668813109398E-003;
2.410333333333334E+009;1.801041513681412E-001;-3.571583330631256E-002;3.302061231806874E-003;4.003973212093115E-003;
2.410500000000000E+009;1.804109215736389E-001;-3.655732423067093E-002;3.374163527041674E-003;3.877011127769947E-003;
2.410666666666667E+009;1.807545274496079E-001;-3.730400651693344E-002;3.482219297438860E-003;3.861617529764772E-003;
2.410833333333334E+009;1.812284290790558E-001;-3.793008252978325E-002;3.483266802504659E-003;3.606867510825396E-003;
2.411000000000000E+009;1.812430620193481E-001;-3.857108205556870E-002;3.389183431863785E-003;3.527434542775154E-003;
2.411166666666667E+009;1.816949993371964E-001;-3.929066658020020E-002;3.643314354121685E-003;3.423016518354416E-003;
2.411333333333334E+009;1.818227618932724E-001;-3.966614603996277E-002;3.628614358603954E-003;3.371784230694175E-003;
2.411500000000000E+009;1.816416233778000E-001;-4.029509052634239E-002;3.549774643033743E-003;3.373588668182492E-003;
2.411666666666667E+009;1.818308532238007E-001;-4.074739664793015E-002;3.809331450611353E-003;3.108569188043475E-003;
2.411833333333334E+009;1.816907674074173E-001;-4.113760963082314E-002;3.895611502230167E-003;3.089990699663758E-003;
2.412000000000000E+009;1.815373897552490E-001;-4.165453836321831E-002;3.962656483054161E-003;3.106464166194201E-003;
2.412166666666667E+009;1.811574995517731E-001;-4.194022715091705E-002;4.030796233564615E-003;2.974415197968483E-003;
2.412333333333334E+009;1.811356097459793E-001;-4.235036671161652E-002;4.068125039339066E-003;2.852987730875611E-003;
2.412500000000000E+009;1.802912652492523E-001;-4.268787801265717E-002;4.174112342298031E-003;2.773314015939832E-003;
2.412666666666667E+009;1.799215674400330E-001;-4.334735497832298E-002;4.272284451872110E-003;2.553328871726990E-003;
2.412833333333334E+009;1.793648898601532E-001;-4.366959631443024E-002;4.487719386816025E-003;2.468775492161512E-003;
2.413000000000000E+009;1.785017251968384E-001;-4.401236400008202E-002;4.580111242830753E-003;2.305986825376749E-003;
2.413166666666667E+009;1.776937842369080E-001;-4.444390162825584E-002;4.681267309933901E-003;2.134335692971945E-003;
2.413333333333334E+009;1.765395700931549E-001;-4.495617374777794E-002;4.753312561661005E-003;2.227617893368006E-003;
2.413500000000000E+009;1.755144298076630E-001;-4.548553004860878E-002;4.884854424744844E-003;2.226934302598238E-003;
2.413666666666667E+009;1.747355163097382E-001;-4.589420929551125E-002;4.708816297352314E-003;2.046337816864252E-003;
2.413833333333334E+009;1.736648529767990E-001;-4.658637940883637E-002;5.137170664966106E-003;1.816310803405941E-003;
2.414000000000000E+009;1.725045889616013E-001;-4.717687144875526E-002;5.045521538704634E-003;1.532531925477088E-003;
2.414166666666667E+009;1.714569926261902E-001;-4.775337129831314E-002;5.167001392692328E-003;1.477839774452150E-003;
2.414333333333334E+009;1.702884435653687E-001;-4.878556355834007E-002;5.127782002091408E-003;1.589005347341299E-003;
2.414500000000000E+009;1.691612899303436E-001;-4.938555136322975E-002;5.278608761727810E-003;1.257923198863864E-003;
2.414666666666667E+009;1.680084317922592E-001;-5.038247257471085E-002;5.245568230748177E-003;1.224128645844758E-003;
2.414833333333334E+009;1.667881309986115E-001;-5.141112580895424E-002;5.523951724171639E-003;9.661896619945765E-004;
2.415000000000000E+009;1.654708832502365E-001;-5.239121243357658E-002;5.530659575015307E-003;7.170378812588751E-004;
2.415166666666667E+009;1.642190963029862E-001;-5.382469296455383E-002;5.566705018281937E-003;6.395936361514032E-004;
2.415333333333334E+009;1.632687002420425E-001;-5.501079931855202E-002;5.603526718914509E-003;4.378439334686846E-004;
2.415500000000000E+009;1.620995551347733E-001;-5.630736425518990E-002;5.713765509426594E-003;2.487636229488999E-004;
2.415666666666667E+009;1.609126031398773E-001;-5.782343447208405E-002;5.690366495400667E-003;-3.183298395015299E-005;
2.415833333333334E+009;1.599214971065521E-001;-5.940671265125275E-002;5.702998954802752E-003;-1.592238404555246E-004;
2.416000000000000E+009;1.585671752691269E-001;-6.100422516465187E-002;5.766172893345356E-003;-5.999847780913115E-004;
2.416166666666667E+009;1.577681154012680E-001;-6.265752762556076E-002;5.822060164064169E-003;-6.931733805686235E-004;
2.416333333333334E+009;1.567184627056122E-001;-6.435654312372208E-002;5.985499825328589E-003;-9.467044728808105E-004;
2.416500000000000E+009;1.557956486940384E-001;-6.631601601839066E-002;5.839991848915815E-003;-1.213946146890521E-003;
2.416666666666667E+009;1.548362672328949E-001;-6.793349236249924E-002;5.735368002206087E-003;-1.458804588764906E-003;
2.416833333333334E+009;1.542282253503799E-001;-6.995327025651932E-002;5.776832811534405E-003;-1.741060870699585E-003;
2.417000000000000E+009;1.532140970230103E-001;-7.193388044834137E-002;5.854982417076826E-003;-1.918954541906714E-003;
2.417166666666667E+009;1.525008529424667E-001;-7.366449385881424E-002;5.673638079315424E-003;-2.284741960465908E-003;
2.417333333333334E+009;1.519284397363663E-001;-7.552996277809143E-002;5.567531567066908E-003;-2.650249982252717E-003;
2.417500000000000E+009;1.512636095285416E-001;-7.750951498746872E-002;5.449025891721249E-003;-2.857353538274765E-003;
2.417666666666667E+009;1.508559435606003E-001;-7.918084412813187E-002;5.415761377662420E-003;-3.140596672892571E-003;
2.417833333333334E+009;1.503578871488571E-001;-8.099349588155747E-002;5.068769212812185E-003;-3.378322347998619E-003;
2.418000000000000E+009;1.499714255332947E-001;-8.293984085321426E-002;4.789719358086586E-003;-3.650918602943420E-003;
2.418166666666667E+009;1.497886031866074E-001;-8.445043861865997E-002;4.760855808854103E-003;-3.838285570964217E-003;
2.418333333333334E+009;1.497002840042114E-001;-8.633856475353241E-002;4.497923422604799E-003;-4.005945753306150E-003;
2.418500000000000E+009;1.494251340627670E-001;-8.775279670953751E-002;4.215169697999954E-003;-4.215337336063385E-003;
2.418666666666667E+009;1.494296789169312E-001;-8.936060965061188E-002;4.026612732559443E-003;-4.255787935107946E-003;
2.418833333333334E+009;1.492066830396652E-001;-9.063419699668884E-002;3.685434348881245E-003;-4.449168220162392E-003;
2.419000000000000E+009;1.490653753280640E-001;-9.211737662553787E-002;3.394303377717733E-003;-4.641427192837000E-003;
2.419166666666667E+009;1.492926180362701E-001;-9.328103065490723E-002;3.129752352833748E-003;-4.716833122074604E-003;
2.419333333333334E+009;1.492929756641388E-001;-9.423544257879257E-002;2.849453594535589E-003;-4.865814466029406E-003;
2.419500000000000E+009;1.495297849178314E-001;-9.555599838495255E-002;2.723946701735258E-003;-4.852021113038063E-003;
2.419666666666667E+009;1.495889872312546E-001;-9.636986255645752E-002;2.248148666694760E-003;-4.888847935944796E-003;
2.419833333333334E+009;1.497457325458527E-001;-9.713908284902573E-002;2.082867082208395E-003;-4.786172881722450E-003;
2.420000000000000E+009;1.502382010221481E-001;-9.768931567668915E-002;1.851160195656121E-003;-4.749421495944262E-003;
2.420166666666667E+009;1.503059566020966E-001;-9.841573238372803E-002;1.668881275691092E-003;-4.826566670089960E-003;
2.420333333333334E+009;1.506643146276474E-001;-9.874705970287323E-002;1.343123964034021E-003;-4.739353433251381E-003;
2.420500000000000E+009;1.511194258928299E-001;-9.907438606023789E-002;1.104904920794070E-003;-4.561657086014748E-003;
2.420666666666667E+009;1.512694954872131E-001;-9.927505999803543E-002;9.410557104274631E-004;-4.469898063689470E-003;
2.420833333333334E+009;1.514816284179688E-001;-9.968607872724533E-002;8.306277450174093E-004;-4.378691315650940E-003;
2.421000000000000E+009;1.518004387617111E-001;-9.971990436315537E-002;7.160115637816489E-004;-4.242866300046444E-003;
2.421166666666667E+009;1.521295607089996E-001;-9.961239993572235E-002;5.650459788739681E-004;-4.185120109468699E-003;
2.421333333333334E+009;1.522757261991501E-001;-9.962851554155350E-002;6.178538314998150E-004;-4.245349206030369E-003;
2.421500000000000E+009;1.522704809904099E-001;-9.962129592895508E-002;4.256535903550685E-004;-4.124682862311602E-003;
2.421666666666667E+009;1.524519026279450E-001;-9.965052455663681E-002;1.681440626271069E-004;-4.075240343809128E-003;
2.421833333333334E+009;1.523841172456741E-001;-9.934602677822113E-002;3.468083741609007E-004;-3.986575640738010E-003;
2.422000000000000E+009;1.522064656019211E-001;-9.900347143411636E-002;1.514296309323981E-004;-3.858745098114014E-003;
2.422166666666667E+009;1.520653367042542E-001;-9.908872842788696E-002;9.380986011819914E-005;-3.733878955245018E-003;
2.422333333333334E+009;1.518429666757584E-001;-9.865276515483856E-002;-8.320446795551106E-005;-3.760987659916282E-003;
2.422500000000000E+009;1.512886434793472E-001;-9.825295954942703E-002;8.588815398979932E-005;-3.732590703293681E-003;
2.422666666666667E+009;1.507419645786285E-001;-9.801885485649109E-002;1.517008058726788E-004;-3.657748224213719E-003;
2.422833333333334E+009;1.501411497592926E-001;-9.808199107646942E-002;3.727589501067996E-005;-3.464273409917951E-003;
2.423000000000000E+009;1.494795233011246E-001;-9.749609977006912E-002;-4.351386451162398E-006;-3.692063968628645E-003;
2.423166666666667E+009;1.486227214336395E-001;-9.711422771215439E-002;-1.076236294466071E-004;-3.732495009899139E-003;
2.423333333333334E+009;1.477229744195938E-001;-9.668129682540894E-002;-1.233697985298932E-004;-3.477411111816764E-003;
2.423500000000000E+009;1.465886682271957E-001;-9.651042520999908E-002;-2.319339109817520E-004;-3.787413472309709E-003;
2.423666666666667E+009;1.453686803579330E-001;-9.613002836704254E-002;-1.093715327442624E-004;-3.552902722731233E-003;
2.423833333333334E+009;1.442282497882843E-001;-9.600412845611572E-002;-2.880316460505128E-004;-3.577830735594034E-003;
2.424000000000000E+009;1.429234743118286E-001;-9.562098234891892E-002;-1.595319918124005E-004;-3.650071332231164E-003;
2.424166666666667E+009;1.415739506483078E-001;-9.547069668769836E-002;-2.745833480730653E-004;-3.823372768238187E-003;
2.424333333333334E+009;1.404013931751251E-001;-9.539809077978134E-002;-3.182291693519801E-004;-3.725918708369136E-003;
2.424500000000000E+009;1.389476656913757E-001;-9.545721858739853E-002;-4.002027853857726E-004;-3.938157577067614E-003;
2.424666666666667E+009;1.376890838146210E-001;-9.530965983867645E-002;-5.938506219536066E-004;-3.785756183788180E-003;
2.424833333333334E+009;1.361060589551926E-001;-9.562991559505463E-002;-8.192558889277279E-004;-3.927280195057392E-003;
2.425000000000000E+009;1.346356272697449E-001;-9.582585841417313E-002;-6.223959499038756E-004;-4.106907639652491E-003;
2.425166666666667E+009;1.331059932708740E-001;-9.624420106410980E-002;-1.011558109894395E-003;-3.984621260315180E-003;
2.425333333333334E+009;1.317632794380188E-001;-9.676301479339600E-002;-1.085070543922484E-003;-3.970679361373186E-003;
2.425500000000000E+009;1.303048580884934E-001;-9.745559096336365E-002;-1.252827467396855E-003;-4.036854021251202E-003;
2.425666666666667E+009;1.287345141172409E-001;-9.811389446258545E-002;-1.585750724188983E-003;-4.064210224896669E-003;
2.425833333333334E+009;1.273542940616608E-001;-9.899459779262543E-002;-1.625095843337476E-003;-3.827404929324985E-003;
2.426000000000000E+009;1.259184479713440E-001;-1.000416725873947E-001;-1.943245995789766E-003;-3.900708863511682E-003;
2.426166666666667E+009;1.247433945536614E-001;-1.011371761560440E-001;-1.917931949719787E-003;-3.905484452843666E-003;
2.426333333333334E+009;1.233027204871178E-001;-1.022754013538361E-001;-2.154262503609061E-003;-3.788937581703067E-003;
2.426500000000000E+009;1.221909523010254E-001;-1.035184487700462E-001;-2.283373381942511E-003;-3.453901503235102E-003;
2.426666666666667E+009;1.209575161337853E-001;-1.047730445861816E-001;-2.336291596293449E-003;-3.378111403435469E-003;
2.426833333333334E+009;1.197033450007439E-001;-1.062537059187889E-001;-2.290112664923072E-003;-3.263448597863317E-003;
2.427000000000000E+009;1.186764687299728E-001;-1.079823449254036E-001;-2.450626343488693E-003;-3.137522609904409E-003;
2.427166666666667E+009;1.176051869988442E-001;-1.092650890350342E-001;-2.421526703983545E-003;-3.120897104963660E-003;
2.427333333333334E+009;1.166009083390236E-001;-1.110596284270287E-001;-2.517226850613952E-003;-2.903118962422013E-003;
2.427500000000000E+009;1.158946752548218E-001;-1.126567050814629E-001;-2.601205836981535E-003;-2.846473362296820E-003;
2.427666666666667E+009;1.150799542665482E-001;-1.144447326660156E-001;-2.659556688740850E-003;-2.722547622397542E-003;
