# Version 1.00
#
freq[Hz];re:Trc1_S11;im:Trc1_S11;re:Trc2_S21;im:Trc2_S21;
2.400000000000000E+009;1.545276939868927E-001;1.067480370402336E-001;-7.807705551385880E-003;-2.639916492626071E-003;
2.400166666666667E+009;1.550948768854141E-001;1.042118668556213E-001;-8.255577646195889E-003;-2.163748256862164E-003;
2.400333333333334E+009;1.546257436275482E-001;1.023351773619652E-001;-8.052716031670570E-003;-1.728423172608018E-003;
2.400500000000000E+009;1.549440920352936E-001;9.955278038978577E-002;-8.294921368360519E-003;-1.416222075931728E-003;
2.400666666666667E+009;1.555042862892151E-001;9.663023799657822E-002;-8.514465764164925E-003;-7.508848211728036E-004;
2.400833333333334E+009;1.548642218112946E-001;9.395793080329895E-002;-7.810910698026419E-003;-4.595912760123611E-004;
2.401000000000000E+009;1.551595926284790E-001;9.125550091266632E-002;-7.796220481395721E-003;-1.499037607572973E-004;
2.401166666666667E+009;1.551084071397781E-001;8.831246197223663E-002;-7.676156237721443E-003;2.593273238744587E-004;
2.401333333333334E+009;1.556086689233780E-001;8.559710532426834E-002;-7.186188828200102E-003;3.677815257105976E-004;
2.401500000000000E+009;1.560499817132950E-001;8.263247460126877E-002;-7.063235621899366E-003;4.789408994838595E-004;
2.401666666666667E+009;1.564507931470871E-001;7.976797968149185E-002;-6.825790274888277E-003;8.644703193567693E-004;
2.401833333333334E+009;1.570952385663986E-001;7.700362056493759E-002;-6.675753276795149E-003;8.104052394628525E-004;
2.402000000000000E+009;1.579160243272781E-001;7.414008677005768E-002;-6.619801744818687E-003;9.343904675915837E-004;
2.402166666666667E+009;1.586015224456787E-001;7.162990421056747E-002;-6.474518682807684E-003;1.022545155137777E-003;
2.402333333333334E+009;1.597247421741486E-001;6.883840262889862E-002;-6.354350131005049E-003;9.422135190106928E-004;
2.402500000000000E+009;1.608591526746750E-001;6.629832834005356E-002;-6.190009880810976E-003;1.051639206707478E-003;
2.402666666666667E+009;1.619949042797089E-001;6.368824839591980E-002;-6.143328733742237E-003;1.038213260471821E-003;
2.402833333333334E+009;1.633037179708481E-001;6.122907996177673E-002;-6.097562611103058E-003;1.141893211752176E-003;
2.403000000000000E+009;1.646193861961365E-001;5.897879973053932E-002;-6.120704114437103E-003;1.256714574992657E-003;
2.403166666666667E+009;1.662715226411820E-001;5.666451528668404E-002;-6.559901405125856E-003;1.371703809127212E-003;
2.403333333333334E+009;1.678259521722794E-001;5.448854342103005E-002;-6.293519865721464E-003;1.419828156940639E-003;
2.403500000000000E+009;1.694389879703522E-001;5.222447961568832E-002;-6.710127461701632E-003;1.734319026581943E-003;
2.403666666666667E+009;1.713760048151016E-001;5.056567490100861E-002;-6.048286799341440E-003;1.585885300301015E-003;
2.403833333333334E+009;1.730433851480484E-001;4.861695319414139E-002;-6.325631402432919E-003;1.776903285644949E-003;
2.404000000000000E+009;1.742480248212814E-001;4.698545858263969E-002;-5.965588148683310E-003;2.372934482991695E-003;
2.404166666666667E+009;1.763446480035782E-001;4.518546536564827E-002;-6.450388114899397E-003;2.311038551852107E-003;
2.404333333333334E+009;1.777368634939194E-001;4.380969330668449E-002;-5.989881232380867E-003;2.704418031498790E-003;
2.404500000000000E+009;1.791993230581284E-001;4.235342144966126E-002;-5.893622059375048E-003;3.294046036899090E-003;
2.404666666666667E+009;1.811438351869583E-001;4.153892025351524E-002;-5.731828045099974E-003;3.021752694621682E-003;
2.404833333333334E+009;1.827309727668762E-001;4.016634449362755E-002;-5.545502062886953E-003;3.287622006610036E-003;
2.405000000000000E+009;1.840873807668686E-001;3.967591747641563E-002;-5.431916564702988E-003;3.333891509100795E-003;
2.405166666666667E+009;1.855656057596207E-001;3.896101936697960E-002;-5.224560387432575E-003;3.625051816925407E-003;
2.405333333333334E+009;1.869942694902420E-001;3.839819133281708E-002;-5.009125918149948E-003;3.668779972940683E-003;
2.405500000000000E+009;1.883241683244705E-001;3.804532811045647E-002;-5.067855585366488E-003;3.763311076909304E-003;
2.405666666666667E+009;1.896112859249115E-001;3.752934187650681E-002;-4.942302126437426E-003;3.801552113145590E-003;
2.405833333333334E+009;1.908022463321686E-001;3.731170296669006E-002;-4.705912899225950E-003;3.999734763056040E-003;
2.406000000000000E+009;1.917940080165863E-001;3.722835704684258E-002;-4.678060766309500E-003;4.088749643415213E-003;
2.406166666666667E+009;1.927890032529831E-001;3.704829514026642E-002;-4.487308207899332E-003;4.114636220037937E-003;
2.406333333333334E+009;1.936953514814377E-001;3.703511878848076E-002;-4.344174638390541E-003;4.265252500772476E-003;
2.406500000000000E+009;1.943293660879135E-001;3.711013868451119E-002;-4.260051064193249E-003;4.249897319823504E-003;
2.406666666666667E+009;1.949328631162643E-001;3.718072175979614E-002;-4.069388844072819E-003;4.389585461467505E-003;
2.406833333333334E+009;1.955649703741074E-001;3.725542500615120E-002;-4.023688845336437E-003;4.476650618016720E-003;
2.407000000000000E+009;1.958102136850357E-001;3.735002875328064E-002;-3.932363353669643E-003;4.659205209463835E-003;
2.407166666666667E+009;1.961279362440109E-001;3.727229684591293E-002;-3.780131926760078E-003;4.611106589436531E-003;
2.407333333333334E+009;1.961208879947662E-001;3.743594884872437E-002;-3.733503399416804E-003;4.768073558807373E-003;
2.407500000000000E+009;1.959972828626633E-001;3.756141662597656E-002;-3.629808081313968E-003;5.056806840002537E-003;
2.407666666666667E+009;1.958992779254913E-001;3.753071650862694E-002;-3.366492688655853E-003;5.006721708923578E-003;
2.407833333333334E+009;1.954153925180435E-001;3.743992000818253E-002;-3.251314628869295E-003;5.091395229101181E-003;
2.408000000000000E+009;1.953102350234985E-001;3.742062672972679E-002;-3.117950400337577E-003;5.023592617362738E-003;
2.408166666666667E+009;1.947305500507355E-001;3.705058991909027E-002;-2.956447424367070E-003;5.145940929651260E-003;
2.408333333333334E+009;1.941116601228714E-001;3.666342422366142E-002;-2.965778578072786E-003;5.193372722715139E-003;
2.408500000000000E+009;1.935944855213165E-001;3.639978170394898E-002;-2.713605063036084E-003;5.318887997418642E-003;
2.408666666666667E+009;1.928430795669556E-001;3.605104982852936E-002;-2.702863886952400E-003;5.346553865820169E-003;
2.408833333333334E+009;1.920886784791946E-001;3.523616865277290E-002;-2.585734473541379E-003;5.354081280529499E-003;
2.409000000000000E+009;1.910672038793564E-001;3.428800031542778E-002;-2.344721695408225E-003;5.394578911364079E-003;
2.409166666666667E+009;1.903167963027954E-001;3.332855924963951E-002;-2.234313404187560E-003;5.385549273341894E-003;
2.409333333333334E+009;1.893802136182785E-001;3.249461576342583E-002;-2.042584819719195E-003;5.454977974295616E-003;
2.409500000000000E+009;1.882514953613281E-001;3.114144131541252E-002;-2.000153763219714E-003;5.553085356950760E-003;
2.409666666666667E+009;1.872470080852509E-001;2.965472638607025E-002;-1.822733087465167E-003;5.475001409649849E-003;
2.409833333333334E+009;1.863703280687332E-001;2.816707268357277E-002;-1.840899582020938E-003;5.732977297157049E-003;
2.410000000000000E+009;1.853215694427490E-001;2.674429118633270E-002;-1.548370579257608E-003;5.786296445876360E-003;
2.410166666666667E+009;1.843526810407639E-001;2.467766217887402E-002;-1.435841782949865E-003;5.878991913050413E-003;
2.410333333333334E+009;1.832387298345566E-001;2.312931977212429E-002;-1.228247187100351E-003;5.878184922039509E-003;
2.410500000000000E+009;1.824358105659485E-001;2.109677158296108E-002;-1.077203196473420E-003;5.973101127892733E-003;
2.410666666666667E+009;1.814725100994110E-001;1.888716220855713E-002;-8.750851848162711E-004;5.942809395492077E-003;
2.410833333333334E+009;1.807426959276199E-001;1.669433899223805E-002;-5.830356967635453E-004;6.049796473234892E-003;
2.411000000000000E+009;1.800675541162491E-001;1.448405068367720E-002;-5.628197104670107E-004;5.862455815076828E-003;
2.411166666666667E+009;1.794315129518509E-001;1.213945262134075E-002;-3.444202593527734E-004;6.156455259770155E-003;
2.411333333333334E+009;1.789233386516571E-001;9.585292078554630E-003;2.322476717608879E-007;6.122157908976078E-003;
2.411500000000000E+009;1.785641163587570E-001;7.389927748590708E-003;2.220812166342512E-004;6.099571473896503E-003;
2.411666666666667E+009;1.784027069807053E-001;4.948950372636318E-003;2.861678658518940E-004;5.930953659117222E-003;
2.411833333333334E+009;1.780498325824738E-001;2.559071872383356E-003;6.625067326240242E-004;5.858303979039192E-003;
2.412000000000000E+009;1.781820803880692E-001;-2.394089051449555E-006;8.358592749573290E-004;5.877730436623097E-003;
2.412166666666667E+009;1.782026290893555E-001;-2.363260602578521E-003;9.024066966958344E-004;5.549342837184668E-003;
2.412333333333334E+009;1.783302575349808E-001;-4.781638272106648E-003;1.175252837128937E-003;5.585529375821352E-003;
2.412500000000000E+009;1.788657754659653E-001;-7.357782218605280E-003;1.329911872744560E-003;5.522673018276691E-003;
2.412666666666667E+009;1.795655786991119E-001;-9.795333258807659E-003;1.390698016621172E-003;5.225020926445723E-003;
2.412833333333334E+009;1.801265478134155E-001;-1.223550830036402E-002;1.345144351944327E-003;5.218683741986752E-003;
2.413000000000000E+009;1.809095889329910E-001;-1.447874214500189E-002;1.427926938049495E-003;5.107230041176081E-003;
2.413166666666667E+009;1.815711259841919E-001;-1.693731918931007E-002;1.602601609192789E-003;5.326555110514164E-003;
2.413333333333334E+009;1.827300041913986E-001;-1.928437128663063E-002;1.590615371242166E-003;5.120230372995138E-003;
2.413500000000000E+009;1.835322529077530E-001;-2.147661335766316E-002;1.566043240018189E-003;4.974208306521177E-003;
2.413666666666667E+009;1.848769932985306E-001;-2.356803975999355E-002;1.715437159873545E-003;5.047267768532038E-003;
2.413833333333334E+009;1.859290897846222E-001;-2.567725628614426E-002;1.815059920772910E-003;5.060084629803896E-003;
2.414000000000000E+009;1.872128248214722E-001;-2.753079682588577E-002;2.094440860673785E-003;4.975381772965193E-003;
2.414166666666667E+009;1.884362399578095E-001;-2.950044535100460E-002;2.131440443918109E-003;5.075344350188971E-003;
2.414333333333334E+009;1.895062625408173E-001;-3.146275505423546E-002;2.308752387762070E-003;5.043128971010447E-003;
2.414500000000000E+009;1.908101886510849E-001;-3.285798802971840E-002;2.453300170600414E-003;4.980393685400486E-003;
2.414666666666667E+009;1.919707506895065E-001;-3.437332808971405E-002;2.649158239364624E-003;4.882179200649262E-003;
2.414833333333334E+009;1.931407749652863E-001;-3.577077388763428E-002;2.827116288244724E-003;5.004965700209141E-003;
2.415000000000000E+009;1.942054033279419E-001;-3.695945441722870E-002;3.076045308262110E-003;4.724685102701187E-003;
2.415166666666667E+009;1.955515444278717E-001;-3.816201165318489E-002;3.183151129633188E-003;4.700003657490015E-003;
2.415333333333334E+009;1.965577155351639E-001;-3.896982967853546E-002;3.351320279762149E-003;4.466211888939142E-003;
2.415500000000000E+009;1.977270245552063E-001;-3.980809077620506E-002;3.569269319996238E-003;4.522129427641630E-003;
2.415666666666667E+009;1.988052278757095E-001;-4.076752811670303E-002;3.615841036662459E-003;4.383163060992956E-003;
2.415833333333334E+009;1.995118260383606E-001;-4.120527580380440E-002;3.744730958715081E-003;4.153938498347998E-003;
2.416000000000000E+009;2.003272473812103E-001;-4.182415083050728E-002;3.962376154959202E-003;4.022097215056419E-003;
2.416166666666667E+009;2.011683136224747E-001;-4.243097826838493E-002;3.882366232573986E-003;3.805569605901837E-003;
2.416333333333334E+009;2.017212212085724E-001;-4.259097576141357E-002;3.953149076551199E-003;3.832079935818911E-003;
2.416500000000000E+009;2.022743970155716E-001;-4.269817471504211E-002;4.168004728853703E-003;3.679994260892272E-003;
2.416666666666667E+009;2.025412172079086E-001;-4.313403740525246E-002;4.218990914523602E-003;3.581024706363678E-003;
2.416833333333334E+009;2.026328295469284E-001;-4.301019385457039E-002;4.307299386709929E-003;3.207024186849594E-003;
2.417000000000000E+009;2.027744203805924E-001;-4.318814724683762E-002;4.170256201177836E-003;3.316364251077175E-003;
2.417166666666667E+009;2.024735659360886E-001;-4.312180355191231E-002;4.306249786168337E-003;2.956372918561101E-003;
2.417333333333334E+009;2.022469937801361E-001;-4.286623373627663E-002;4.447921644896269E-003;3.022132674232125E-003;
2.417500000000000E+009;2.019765824079514E-001;-4.277934134006500E-002;4.437344148755074E-003;2.706225495785475E-003;
2.417666666666667E+009;2.015935182571411E-001;-4.263733327388763E-002;4.666035994887352E-003;2.761740004643798E-003;
2.417833333333334E+009;2.010635584592819E-001;-4.244916886091232E-002;4.685990046709776E-003;2.593257930129767E-003;
2.418000000000000E+009;2.004681229591370E-001;-4.212936013936997E-002;4.733801819384098E-003;2.618983620777726E-003;
2.418166666666667E+009;1.996240764856339E-001;-4.199285060167313E-002;4.923067986965179E-003;2.449954394251108E-003;
2.418333333333334E+009;1.986609548330307E-001;-4.190420731902123E-002;4.894409794360399E-003;2.266065217554569E-003;
2.418500000000000E+009;1.977100670337677E-001;-4.181966930627823E-002;5.075414199382067E-003;2.194837434217334E-003;
2.418666666666667E+009;1.967449486255646E-001;-4.187111556529999E-002;5.123118404299021E-003;1.910408609546721E-003;
2.418833333333334E+009;1.955118626356125E-001;-4.199570417404175E-002;5.207517184317112E-003;1.652293954975903E-003;
2.419000000000000E+009;1.942499130964279E-001;-4.209515079855919E-002;5.313821136951447E-003;1.635671593248844E-003;
2.419166666666667E+009;1.930228024721146E-001;-4.244611412286758E-002;5.484757944941521E-003;1.231714501045644E-003;
2.419333333333334E+009;1.914955824613571E-001;-4.295394942164421E-002;5.440031178295612E-003;9.816060774028301E-004;
2.419500000000000E+009;1.898685693740845E-001;-4.332048445940018E-002;5.402661394327879E-003;8.276874432340264E-004;
2.419666666666667E+009;1.884309202432632E-001;-4.402330145239830E-002;5.542279221117497E-003;4.804341588169336E-004;
2.419833333333334E+009;1.868198812007904E-001;-4.478259012103081E-002;5.346170160919428E-003;3.344603755977005E-004;
2.420000000000000E+009;1.852674335241318E-001;-4.569427296519280E-002;5.340494681149721E-003;-9.116925502894446E-005;
2.420166666666667E+009;1.835676282644272E-001;-4.664050042629242E-002;5.056362599134445E-003;-4.338129656389356E-004;
2.420333333333334E+009;1.820723712444305E-001;-4.786971211433411E-002;5.010651890188456E-003;-4.303925379645079E-004;
2.420500000000000E+009;1.803122609853745E-001;-4.919576644897461E-002;4.700991790741682E-003;-6.241735536605120E-004;
2.420666666666667E+009;1.787920296192169E-001;-5.038594827055931E-002;4.732752684503794E-003;-6.826668395660818E-004;
2.420833333333334E+009;1.770915240049362E-001;-5.183984339237213E-002;4.391815047711134E-003;-7.933958549983800E-004;
2.421000000000000E+009;1.755609512329102E-001;-5.350173264741898E-002;4.350516479462385E-003;-8.022671099752188E-004;
2.421166666666667E+009;1.742628067731857E-001;-5.522502213716507E-002;4.144101403653622E-003;-1.001196331344545E-003;
2.421333333333334E+009;1.725020259618759E-001;-5.699662864208221E-002;3.995376173406839E-003;-7.656400557607412E-004;
2.421500000000000E+009;1.712582856416702E-001;-5.879854410886765E-002;3.966699354350567E-003;-1.066357130184770E-003;
2.421666666666667E+009;1.699131727218628E-001;-6.054763495922089E-002;3.878115210682154E-003;-9.012944647110999E-004;
2.421833333333334E+009;1.688352674245834E-001;-6.271682679653168E-002;3.766296198591590E-003;-8.442189428023994E-004;
2.422000000000000E+009;1.674953252077103E-001;-6.443089991807938E-002;3.784391330555081E-003;-9.496753918938339E-004;
2.422166666666667E+009;1.667099446058273E-001;-6.672006100416184E-002;3.826986532658339E-003;-7.507859845645726E-004;
2.422333333333334E+009;1.657439172267914E-001;-6.861103326082230E-002;3.818795783445239E-003;-8.942608837969601E-004;
2.422500000000000E+009;1.649028360843658E-001;-7.059373706579208E-002;3.864366561174393E-003;-8.839112706482410E-004;
2.422666666666667E+009;1.643150001764298E-001;-7.272948324680328E-002;3.597159404307604E-003;-8.960120030678809E-004;
2.422833333333334E+009;1.638325899839401E-001;-7.487039268016815E-002;3.779257414862514E-003;-9.041718440130353E-004;
2.423000000000000E+009;1.632751524448395E-001;-7.703192532062531E-002;3.693199949339032E-003;-1.067258184775710E-003;
2.423166666666667E+009;1.629612296819687E-001;-7.891809940338135E-002;3.879325464367867E-003;-1.105751027353108E-003;
2.423333333333334E+009;1.626927852630615E-001;-8.080517500638962E-002;3.929816652089357E-003;-1.162984292022884E-003;
2.423500000000000E+009;1.626015156507492E-001;-8.273826539516449E-002;3.895125119015575E-003;-1.436946913599968E-003;
2.423666666666667E+009;1.626424491405487E-001;-8.469886332750320E-002;3.766262205317617E-003;-1.522883074358106E-003;
2.423833333333334E+009;1.626133769750595E-001;-8.639253675937653E-002;3.804354229941964E-003;-1.504503539763391E-003;
2.424000000000000E+009;1.627866327762604E-001;-8.822258561849594E-002;3.795802826061845E-003;-1.547712716273964E-003;
2.424166666666667E+009;1.628978401422501E-001;-8.978028595447540E-002;3.765790956094861E-003;-1.557871350087225E-003;
2.424333333333334E+009;1.630107164382935E-001;-9.132055938243866E-002;3.561987774446607E-003;-1.780298305675387E-003;
2.424500000000000E+009;1.633846312761307E-001;-9.314426779747009E-002;3.530729096382856E-003;-1.808833330869675E-003;
2.424666666666667E+009;1.636309325695038E-001;-9.442058950662613E-002;3.500836901366711E-003;-1.698099658824503E-003;
2.424833333333334E+009;1.642463952302933E-001;-9.562658518552780E-002;3.487609792500734E-003;-1.822773017920554E-003;
2.425000000000000E+009;1.645366549491882E-001;-9.681317210197449E-002;3.462849650532007E-003;-1.965115312486887E-003;
2.425166666666667E+009;1.649574488401413E-001;-9.797921031713486E-002;3.341410309076309E-003;-1.996321836486459E-003;
2.425333333333334E+009;1.652833670377731E-001;-9.891054034233093E-002;3.310179570689797E-003;-2.017137827351689E-003;
2.425500000000000E+009;1.657156199216843E-001;-9.988714754581451E-002;3.419379703700542E-003;-2.118856180459261E-003;
2.425666666666667E+009;1.661574691534042E-001;-1.006013378500938E-001;3.316638758406043E-003;-2.259693806990981E-003;
2.425833333333334E+009;1.663974076509476E-001;-1.013463288545609E-001;3.212132258340716E-003;-2.448329236358404E-003;
2.426000000000000E+009;1.668900847434998E-001;-1.017100438475609E-001;3.277078736573458E-003;-2.353555522859097E-003;
2.426166666666667E+009;1.673072874546051E-001;-1.021327823400497E-001;3.350560087710619E-003;-2.514650579541922E-003;
2.426333333333334E+009;1.674008220434189E-001;-1.026740819215775E-001;3.311102744191885E-003;-2.703021513298154E-003;
2.426500000000000E+009;1.678250730037689E-001;-1.028956323862076E-001;3.235343610867858E-003;-2.733783330768347E-003;
2.426666666666667E+009;1.680041402578354E-001;-1.032631844282150E-001;3.245264058932662E-003;-2.708252519369125E-003;
2.426833333333334E+009;1.682820469141007E-001;-1.034489050507546E-001;2.902567619457841E-003;-2.867939183488488E-003;
2.427000000000000E+009;1.683569401502609E-001;-1.037036851048470E-001;3.071034559980035E-003;-3.039649687707424E-003;
2.427166666666667E+009;1.683812588453293E-001;-1.037175431847572E-001;2.878534607589245E-003;-3.054173430427909E-003;
2.427333333333334E+009;1.681619137525559E-001;-1.039002239704132E-001;2.731436630710959E-003;-3.108690259978175E-003;
2.427500000000000E+009;1.679958701133728E-001;-1.040963828563690E-001;2.825224772095680E-003;-3.226576838642359E-003;
2.427666666666667E+009;1.676787585020065E-001;-1.040502861142159E-001;2.563083311542869E-003;-3.372744889929891E-003;
2.427833333333334E+009;1.673425137996674E-001;-1.041939929127693E-001;2.546575618907809E-003;-3.367948811501265E-003;
