# Version 1.00
#
freq[Hz];re:Trc1_S11;im:Trc1_S11;re:Trc2_S21;im:Trc2_S21;
2.400000000000000E+009;1.546456366777420E-001;1.066069751977921E-001;-7.858203724026680E-003;-2.705991035327315E-003;
2.400166666666667E+009;1.538240462541580E-001;1.052737906575203E-001;-7.849407382309437E-003;-2.654071431607008E-003;
2.400333333333334E+009;1.543794870376587E-001;1.021443903446198E-001;-8.070196025073528E-003;-1.816453062929213E-003;
2.400500000000000E+009;1.545868217945099E-001;9.914632886648178E-002;-8.242925629019737E-003;-1.409919233992696E-003;
2.400666666666667E+009;1.546618789434433E-001;9.669782221317291E-002;-8.235142566263676E-003;-8.651787647977471E-004;
2.400833333333334E+009;1.545829772949219E-001;9.397910535335541E-002;-8.073889650404453E-003;-5.406322306953371E-004;
2.401000000000000E+009;1.550465524196625E-001;9.101254492998123E-002;-7.786480709910393E-003;-2.498136564099696E-005;
2.401166666666667E+009;1.550082713365555E-001;8.828446269035339E-002;-7.695635780692101E-003;2.782564843073487E-004;
2.401333333333334E+009;1.555142253637314E-001;8.533618599176407E-002;-7.362793665379286E-003;4.078574129380286E-004;
2.401500000000000E+009;1.559136956930161E-001;8.250362426042557E-002;-7.127892691642046E-003;6.469325744546950E-004;
2.401666666666667E+009;1.565266400575638E-001;7.967916131019592E-002;-6.766160018742085E-003;7.382880430668593E-004;
2.401833333333334E+009;1.570460200309753E-001;7.681982219219208E-002;-6.775287911295891E-003;9.281755774281919E-004;
2.402000000000000E+009;1.576705276966095E-001;7.391328364610672E-002;-6.632224656641483E-003;9.918266441673040E-004;
2.402166666666667E+009;1.584404110908508E-001;7.133526355028153E-002;-6.324957590550184E-003;9.261913946829736E-004;
2.402333333333334E+009;1.594229787588120E-001;6.864834576845169E-002;-6.248424295336008E-003;1.109322300180793E-003;
2.402500000000000E+009;1.605108678340912E-001;6.603883951902390E-002;-6.065923720598221E-003;1.146535621955991E-003;
2.402666666666667E+009;1.616422086954117E-001;6.376592814922333E-002;-6.144074257463217E-003;1.182476291432977E-003;
2.402833333333334E+009;1.630750745534897E-001;6.140846386551857E-002;-5.672215018421412E-003;9.917444549500942E-004;
2.403000000000000E+009;1.646009683609009E-001;5.879131704568863E-002;-6.179753690958023E-003;1.000684336759150E-003;
2.403166666666667E+009;1.659126579761505E-001;5.664109811186791E-002;-6.111735478043556E-003;1.554031972773373E-003;
2.403333333333334E+009;1.673135310411453E-001;5.456604063510895E-002;-6.097850389778614E-003;1.779471640475094E-003;
2.403500000000000E+009;1.695393472909927E-001;5.242285504937172E-002;-6.440663244575262E-003;1.100561465136707E-003;
2.403666666666667E+009;1.709588021039963E-001;5.035915225744247E-002;-6.507290061563253E-003;1.702304231002927E-003;
2.403833333333334E+009;1.727830469608307E-001;4.862406477332115E-002;-6.355314515531063E-003;1.630684477277100E-003;
2.404000000000000E+009;1.740295141935349E-001;4.677787423133850E-002;-6.234154570847750E-003;2.295935759320855E-003;
2.404166666666667E+009;1.759160459041596E-001;4.541124030947685E-002;-6.098940968513489E-003;2.516383072361350E-003;
2.404333333333334E+009;1.775589436292648E-001;4.387071728706360E-002;-5.975537933409214E-003;2.858060644939542E-003;
2.404500000000000E+009;1.791316717863083E-001;4.251882806420326E-002;-5.954118911176920E-003;2.883383538573980E-003;
2.404666666666667E+009;1.806802004575729E-001;4.136451706290245E-002;-5.726191680878401E-003;3.260151483118534E-003;
2.404833333333334E+009;1.825402826070786E-001;4.022740945219994E-002;-5.610887892544270E-003;3.308263607323170E-003;
2.405000000000000E+009;1.837860941886902E-001;3.966904804110527E-002;-5.484040360897780E-003;3.398773260414600E-003;
2.405166666666667E+009;1.853055655956268E-001;3.888562694191933E-002;-5.285272374749184E-003;3.567730775102973E-003;
2.405333333333334E+009;1.867535263299942E-001;3.837160393595696E-002;-5.184794776141644E-003;3.693076083436608E-003;
2.405500000000000E+009;1.880947351455689E-001;3.793054074048996E-002;-4.963254090398550E-003;3.788714995607734E-003;
2.405666666666667E+009;1.892707049846649E-001;3.753893822431564E-002;-5.129909608513117E-003;3.879161784425378E-003;
2.405833333333334E+009;1.904775649309158E-001;3.736170753836632E-002;-4.824853967875242E-003;3.952793311327696E-003;
2.406000000000000E+009;1.916294991970062E-001;3.719453141093254E-002;-4.483259283006191E-003;4.169774707406759E-003;
2.406166666666667E+009;1.924704611301422E-001;3.705907613039017E-002;-4.455729853361845E-003;4.231619182974100E-003;
2.406333333333334E+009;1.934927105903626E-001;3.697573021054268E-002;-4.407338798046112E-003;4.334174096584320E-003;
2.406500000000000E+009;1.941890120506287E-001;3.693356737494469E-002;-4.299992229789496E-003;4.391729366034269E-003;
2.406666666666667E+009;1.947227418422699E-001;3.707928583025932E-002;-4.132763482630253E-003;4.480804782360792E-003;
2.406833333333334E+009;1.952155232429504E-001;3.719130158424377E-002;-4.030827432870865E-003;4.651372786611319E-003;
2.407000000000000E+009;1.955170929431915E-001;3.735155239701271E-002;-3.915383480489254E-003;4.635390825569630E-003;
2.407166666666667E+009;1.959745883941650E-001;3.724399954080582E-002;-3.754099598154426E-003;4.627901595085859E-003;
2.407333333333334E+009;1.958486735820770E-001;3.742530569434166E-002;-3.832104383036494E-003;4.862084053456783E-003;
2.407500000000000E+009;1.957279890775681E-001;3.755156695842743E-002;-3.621095791459084E-003;4.823246039450169E-003;
2.407666666666667E+009;1.956022828817368E-001;3.749993816018105E-002;-3.396533196792007E-003;5.116080865263939E-003;
2.407833333333334E+009;1.952435821294785E-001;3.763667121529579E-002;-3.374553285539150E-003;5.075110588222742E-003;
2.408000000000000E+009;1.951040327548981E-001;3.741767629981041E-002;-3.119710600003600E-003;5.066001322120428E-003;
2.408166666666667E+009;1.945173144340515E-001;3.711454570293427E-002;-2.985418075695634E-003;5.341601092368364E-003;
2.408333333333334E+009;1.940407454967499E-001;3.665667772293091E-002;-2.895408775657415E-003;5.262858234345913E-003;
2.408500000000000E+009;1.933223605155945E-001;3.631854057312012E-002;-2.724243560805917E-003;5.213129334151745E-003;
2.408666666666667E+009;1.927263736724854E-001;3.582320734858513E-002;-2.639207988977432E-003;5.284834653139114E-003;
2.408833333333334E+009;1.920318603515625E-001;3.520530834794045E-002;-2.620387123897672E-003;5.426019895821810E-003;
2.409000000000000E+009;1.909559816122055E-001;3.439990803599358E-002;-2.299854066222906E-003;5.423514638096094E-003;
2.409166666666667E+009;1.901184171438217E-001;3.338008746504784E-002;-2.226184587925673E-003;5.474195815622807E-003;
2.409333333333334E+009;1.892402172088623E-001;3.250840306282044E-002;-2.155892783775926E-003;5.527466069906950E-003;
2.409500000000000E+009;1.880000233650208E-001;3.123446181416512E-002;-2.028981456533074E-003;5.685560405254364E-003;
2.409666666666667E+009;1.870359778404236E-001;2.986763790249825E-002;-1.916029257699847E-003;5.616097245365381E-003;
2.409833333333334E+009;1.860470771789551E-001;2.838439308106899E-002;-1.760121318511665E-003;5.658240057528019E-003;
2.410000000000000E+009;1.849345564842224E-001;2.677640877664089E-002;-1.542660989798605E-003;5.828615278005600E-003;
2.410166666666667E+009;1.839316040277481E-001;2.493970841169357E-002;-1.391366124153137E-003;5.828990601003170E-003;
2.410333333333334E+009;1.831210106611252E-001;2.312509343028069E-002;-1.239740173332393E-003;5.973780527710915E-003;
2.410500000000000E+009;1.820098757743835E-001;2.116343937814236E-002;-9.943096665665507E-004;5.937200505286455E-003;
2.410666666666667E+009;1.813010722398758E-001;1.891228556632996E-002;-8.556575630791485E-004;6.001077126711607E-003;
2.410833333333334E+009;1.806209236383438E-001;1.672963239252567E-002;-6.129823741503060E-004;6.072442047297955E-003;
2.411000000000000E+009;1.798893064260483E-001;1.463928259909153E-002;-2.344867680221796E-004;6.037727463990450E-003;
2.411166666666667E+009;1.791378259658814E-001;1.241031661629677E-002;-1.905473909573630E-004;6.122596561908722E-003;
2.411333333333334E+009;1.786334216594696E-001;9.724964387714863E-003;4.726771658170037E-005;6.125939078629017E-003;
2.411500000000000E+009;1.783547997474670E-001;7.457289844751358E-003;3.098789020441473E-004;6.185308098793030E-003;
2.411666666666667E+009;1.780715286731720E-001;5.064504686743021E-003;4.003287467639893E-004;5.871012341231108E-003;
2.411833333333334E+009;1.776966601610184E-001;2.716912655159831E-003;6.409011548385024E-004;5.911138374358416E-003;
2.412000000000000E+009;1.778842657804489E-001;3.194420787622221E-005;7.575093768537045E-004;5.687289871275425E-003;
2.412166666666667E+009;1.777994036674500E-001;-2.313879551365972E-003;1.058777561411262E-003;5.669940728694201E-003;
2.412333333333334E+009;1.780719608068466E-001;-4.841561894863844E-003;1.115163555368781E-003;5.667451769113541E-003;
2.412500000000000E+009;1.787120103836060E-001;-7.135820109397173E-003;1.250860281288624E-003;5.430958699434996E-003;
2.412666666666667E+009;1.791377812623978E-001;-9.692844934761524E-003;1.411427161656320E-003;5.353312939405441E-003;
2.412833333333334E+009;1.799335479736328E-001;-1.212964672595263E-002;1.400760724209249E-003;5.324380472302437E-003;
2.413000000000000E+009;1.806499660015106E-001;-1.437690947204828E-002;1.459546037949622E-003;5.174549296498299E-003;
2.413166666666667E+009;1.815439015626907E-001;-1.657577231526375E-002;1.591296284459531E-003;5.276911426335573E-003;
2.413333333333334E+009;1.824302077293396E-001;-1.908512040972710E-002;1.610130188055337E-003;5.124538671225309E-003;
2.413500000000000E+009;1.835960894823074E-001;-2.138435095548630E-002;1.810088753700256E-003;5.128947086632252E-003;
2.413666666666667E+009;1.845948249101639E-001;-2.348233945667744E-002;1.761376857757568E-003;5.034152884036303E-003;
2.413833333333334E+009;1.857342422008514E-001;-2.548796869814396E-002;1.992396311834455E-003;5.057177506387234E-003;
2.414000000000000E+009;1.868181675672531E-001;-2.740258537232876E-002;2.212969353422523E-003;5.032827612012625E-003;
2.414166666666667E+009;1.882022321224213E-001;-2.918503247201443E-002;2.190462080761790E-003;5.091263912618160E-003;
2.414333333333334E+009;1.892924457788467E-001;-3.117686696350575E-002;2.535234205424786E-003;5.007515195757151E-003;
2.414500000000000E+009;1.905981600284576E-001;-3.271711990237236E-002;2.515355823561549E-003;4.947788547724485E-003;
2.414666666666667E+009;1.916384100914002E-001;-3.411489725112915E-002;2.797142835333943E-003;4.959751851856709E-003;
2.414833333333334E+009;1.929193139076233E-001;-3.556310385465622E-002;2.917866921052337E-003;4.869138356298208E-003;
2.415000000000000E+009;1.940815150737763E-001;-3.696603700518608E-002;3.049305640161037E-003;4.781080409884453E-003;
2.415166666666667E+009;1.952774077653885E-001;-3.797179460525513E-002;3.174807643517852E-003;4.532695747911930E-003;
2.415333333333334E+009;1.963801681995392E-001;-3.882165253162384E-002;3.468607319518924E-003;4.435063805431128E-003;
2.415500000000000E+009;1.974229365587235E-001;-3.954600170254707E-002;3.560223150998354E-003;4.356229212135077E-003;
2.415666666666667E+009;1.986097842454910E-001;-4.042027890682221E-002;3.488339716568589E-003;4.246865399181843E-003;
2.415833333333334E+009;1.994510143995285E-001;-4.102192074060440E-002;3.833248047158122E-003;4.092478659003973E-003;
2.416000000000000E+009;2.000946104526520E-001;-4.160774871706963E-002;3.899510251358151E-003;3.936661407351494E-003;
2.416166666666667E+009;2.009150385856628E-001;-4.212505370378494E-002;3.915186971426010E-003;3.691179910674691E-003;
2.416333333333334E+009;2.015249580144882E-001;-4.236689209938049E-002;4.027387127280235E-003;3.550262190401554E-003;
2.416500000000000E+009;2.019814699888229E-001;-4.257955774664879E-002;4.143953789025545E-003;3.430905751883984E-003;
2.416666666666667E+009;2.023654878139496E-001;-4.277295246720314E-002;4.244644660502672E-003;3.399627283215523E-003;
2.416833333333334E+009;2.023835182189941E-001;-4.285726696252823E-002;4.242116585373879E-003;3.183172550052404E-003;
2.417000000000000E+009;2.026567608118057E-001;-4.285564273595810E-002;4.345399793237448E-003;3.149148309603334E-003;
2.417166666666667E+009;2.024428248405457E-001;-4.280982539057732E-002;4.355848766863346E-003;3.040764015167952E-003;
2.417333333333334E+009;2.021556496620178E-001;-4.260334372520447E-002;4.404703620821238E-003;2.825743984431028E-003;
2.417500000000000E+009;2.017578035593033E-001;-4.264814406633377E-002;4.431209061294794E-003;2.840790199115872E-003;
2.417666666666667E+009;2.012861818075180E-001;-4.239421337842941E-002;4.455605521798134E-003;2.630453789606690E-003;
2.417833333333334E+009;2.008708566427231E-001;-4.209093004465103E-002;4.676727112382650E-003;2.682115882635117E-003;
2.418000000000000E+009;2.003174573183060E-001;-4.191372543573380E-002;4.824625328183174E-003;2.529313322156668E-003;
2.418166666666667E+009;1.994638442993164E-001;-4.167202860116959E-002;4.838939290493727E-003;2.469360362738371E-003;
2.418333333333334E+009;1.985753178596497E-001;-4.159021377563477E-002;4.886504728347063E-003;2.286699600517750E-003;
2.418500000000000E+009;1.975918859243393E-001;-4.160056635737419E-002;4.945303779095411E-003;1.993557205423713E-003;
2.418666666666667E+009;1.966499686241150E-001;-4.162079468369484E-002;5.199009086936712E-003;2.014777623116970E-003;
2.418833333333334E+009;1.954404860734940E-001;-4.170491173863411E-002;5.334710702300072E-003;1.683482318185270E-003;
2.419000000000000E+009;1.940700411796570E-001;-4.181652888655663E-002;5.360726267099381E-003;1.430371077731252E-003;
2.419166666666667E+009;1.929149031639099E-001;-4.226422682404518E-002;5.508827045559883E-003;1.228428096510470E-003;
2.419333333333334E+009;1.915168017148972E-001;-4.261751845479012E-002;5.489003844559193E-003;9.738255175761879E-004;
2.419500000000000E+009;1.899708062410355E-001;-4.309605434536934E-002;5.572346970438957E-003;7.223390857689083E-004;
2.419666666666667E+009;1.883016824722290E-001;-4.382421448826790E-002;5.455587990581989E-003;4.401805344969034E-004;
2.419833333333334E+009;1.867358833551407E-001;-4.449834674596787E-002;5.370825529098511E-003;2.650575479492545E-004;
2.420000000000000E+009;1.852915287017822E-001;-4.545352235436440E-002;5.185223650187254E-003;-9.591671550879255E-005;
2.420166666666667E+009;1.835779845714569E-001;-4.648161306977272E-002;5.255143623799086E-003;-1.922051887959242E-004;
2.420333333333334E+009;1.820000708103180E-001;-4.774326086044312E-002;4.951866809278727E-003;-5.685146898031235E-004;
2.420500000000000E+009;1.804182380437851E-001;-4.894111678004265E-002;4.852548707276583E-003;-7.189777097664774E-004;
2.420666666666667E+009;1.787683069705963E-001;-5.010213702917099E-002;4.736077040433884E-003;-8.320473716594279E-004;
2.420833333333334E+009;1.770534366369247E-001;-5.156519263982773E-002;4.431666340678930E-003;-8.251742110587657E-004;
2.421000000000000E+009;1.755919158458710E-001;-5.327632650732994E-002;4.322830121964216E-003;-8.640660671517253E-004;
2.421166666666667E+009;1.741847246885300E-001;-5.503793433308601E-002;4.053253680467606E-003;-9.813611395657063E-004;
2.421333333333334E+009;1.725641638040543E-001;-5.642543733119965E-002;3.965112380683422E-003;-9.664858225733042E-004;
2.421500000000000E+009;1.710468679666519E-001;-5.850007757544518E-002;3.777778940275312E-003;-8.740724297240377E-004;
2.421666666666667E+009;1.700264811515808E-001;-6.043116748332977E-002;3.845745697617531E-003;-8.926584850996733E-004;
2.421833333333334E+009;1.688835620880127E-001;-6.233946606516838E-002;3.805170534178615E-003;-7.420710171572864E-004;
2.422000000000000E+009;1.677581220865250E-001;-6.433703750371933E-002;3.713485551998019E-003;-8.510532788932324E-004;
2.422166666666667E+009;1.668102145195007E-001;-6.642425060272217E-002;3.609033767133951E-003;-7.636476657353342E-004;
2.422333333333334E+009;1.657857745885849E-001;-6.853039562702179E-002;3.537521231919527E-003;-8.829983416944742E-004;
2.422500000000000E+009;1.651686131954193E-001;-7.040269672870636E-002;3.923419862985611E-003;-8.299900800921023E-004;
2.422666666666667E+009;1.643703430891037E-001;-7.221219688653946E-002;3.853295929729939E-003;-8.744032820686698E-004;
2.422833333333334E+009;1.639176309108734E-001;-7.438562065362930E-002;3.748033894225955E-003;-8.361726650036871E-004;
2.423000000000000E+009;1.634320169687271E-001;-7.661504298448563E-002;3.800119971856475E-003;-9.669640567153692E-004;
2.423166666666667E+009;1.630923300981522E-001;-7.857560366392136E-002;3.707180032506585E-003;-1.222287770360708E-003;
2.423333333333334E+009;1.628139913082123E-001;-8.042136579751968E-002;3.869755193591118E-003;-1.199069782160223E-003;
2.423500000000000E+009;1.627577841281891E-001;-8.250409364700317E-002;3.712717676535249E-003;-1.237999880686402E-003;
2.423666666666667E+009;1.627951413393021E-001;-8.426165580749512E-002;3.820987883955240E-003;-1.386188436299563E-003;
2.423833333333334E+009;1.627440005540848E-001;-8.615109324455261E-002;3.671253798529506E-003;-1.520122867077589E-003;
2.424000000000000E+009;1.629312932491303E-001;-8.795060962438583E-002;3.706729039549828E-003;-1.432099263183773E-003;
2.424166666666667E+009;1.629523932933807E-001;-8.966612070798874E-002;3.566229483112693E-003;-1.661717309616506E-003;
2.424333333333334E+009;1.631603837013245E-001;-9.111402928829193E-002;3.526099259033799E-003;-1.739775296300650E-003;
2.424500000000000E+009;1.635715961456299E-001;-9.287574887275696E-002;3.611015155911446E-003;-1.751066884025931E-003;
2.424666666666667E+009;1.638052165508270E-001;-9.424450993537903E-002;3.545825602486730E-003;-1.723381457850337E-003;
2.424833333333334E+009;1.643801182508469E-001;-9.558002650737763E-002;3.421571804210544E-003;-1.931038219481707E-003;
2.425000000000000E+009;1.646412909030914E-001;-9.672807157039642E-002;3.372659441083670E-003;-1.977582462131977E-003;
2.425166666666667E+009;1.651310473680496E-001;-9.775125980377197E-002;3.409992437809706E-003;-2.020192565396428E-003;
2.425333333333334E+009;1.653842180967331E-001;-9.864047169685364E-002;3.395641688257456E-003;-2.090017776936293E-003;
2.425500000000000E+009;1.659032553434372E-001;-9.969885647296906E-002;3.420912194997072E-003;-2.124405931681395E-003;
2.425666666666667E+009;1.663340181112289E-001;-1.003271564841270E-001;3.158286213874817E-003;-2.167768543586135E-003;
2.425833333333334E+009;1.666104346513748E-001;-1.011317521333695E-001;3.281505545601249E-003;-2.253670478239656E-003;
2.426000000000000E+009;1.670950055122376E-001;-1.015858501195908E-001;3.199710277840495E-003;-2.308113267645240E-003;
2.426166666666667E+009;1.675057113170624E-001;-1.020417734980583E-001;3.054110100492835E-003;-2.583448076620698E-003;
2.426333333333334E+009;1.676152348518372E-001;-1.025077924132347E-001;3.101233858615160E-003;-2.640835708007217E-003;
2.426500000000000E+009;1.680797934532166E-001;-1.027563214302063E-001;3.173065604642034E-003;-2.587774768471718E-003;
2.426666666666667E+009;1.682423055171967E-001;-1.031271144747734E-001;3.111902158707380E-003;-2.829267876222730E-003;
2.426833333333334E+009;1.685788780450821E-001;-1.033042818307877E-001;2.926022978499532E-003;-2.792150015011430E-003;
2.427000000000000E+009;1.684901267290115E-001;-1.034800782799721E-001;2.908865222707391E-003;-2.813992789015174E-003;
2.427166666666667E+009;1.685512065887451E-001;-1.035288199782372E-001;2.849785611033440E-003;-3.018679330125451E-003;
2.427333333333334E+009;1.684599071741104E-001;-1.038555800914764E-001;2.743194112554193E-003;-3.026658436283469E-003;
2.427500000000000E+009;1.683255881071091E-001;-1.039832681417465E-001;2.790953731164336E-003;-3.281368874013424E-003;
2.427666666666667E+009;1.679503172636032E-001;-1.039445698261261E-001;2.524498850107193E-003;-3.400005865842104E-003;
2.427833333333334E+009;1.676782965660095E-001;-1.040808409452438E-001;2.516482025384903E-003;-3.382146824151278E-003;
