# Version 1.00
#
freq[Hz];re:Trc1_S11;im:Trc1_S11;re:Trc2_S21;im:Trc2_S21;
2.400000000000000E+009;1.547842472791672E-001;1.068701893091202E-001;-8.033016696572304E-003;-2.606428926810622E-003;
2.400166666666667E+009;1.546425968408585E-001;1.045212894678116E-001;-8.186522871255875E-003;-2.075049560517073E-003;
2.400333333333334E+009;1.544022709131241E-001;1.020666584372520E-001;-8.289619348943234E-003;-1.687682699412108E-003;
2.400500000000000E+009;1.545159816741943E-001;9.948602318763733E-002;-8.260237984359264E-003;-1.139263738878071E-003;
2.400666666666667E+009;1.545908153057098E-001;9.686707705259323E-002;-8.010189048945904E-003;-8.493587956763804E-004;
2.400833333333334E+009;1.544291824102402E-001;9.464932978153229E-002;-7.749396841973066E-003;-6.240351358428598E-004;
2.401000000000000E+009;1.548486799001694E-001;9.122028201818466E-002;-7.696682121604681E-003;1.366506421618396E-005;
2.401166666666667E+009;1.557638943195343E-001;8.817780017852783E-002;-7.902296259999275E-003;2.341757062822580E-004;
2.401333333333334E+009;1.557634919881821E-001;8.553823828697205E-002;-7.463022135198116E-003;3.566424420569092E-004;
2.401500000000000E+009;1.555855870246887E-001;8.247452229261398E-002;-7.042926736176014E-003;7.843382772989571E-004;
2.401666666666667E+009;1.565877646207809E-001;7.972016185522080E-002;-7.102655712515116E-003;6.877320702187717E-004;
2.401833333333334E+009;1.563520878553391E-001;7.741125673055649E-002;-6.387283094227314E-003;9.632642031647265E-004;
2.402000000000000E+009;1.577530801296234E-001;7.423909753561020E-002;-6.578082684427500E-003;1.045611337758601E-003;
2.402166666666667E+009;1.585904359817505E-001;7.149139046669006E-002;-6.371607538312674E-003;1.023363089188933E-003;
2.402333333333334E+009;1.593662351369858E-001;6.951419264078140E-002;-5.909550003707409E-003;1.022015232592821E-003;
2.402500000000000E+009;1.605719178915024E-001;6.617354601621628E-002;-6.177257746458054E-003;1.182199106551707E-003;
2.402666666666667E+009;1.617097258567810E-001;6.391198188066483E-002;-6.064665503799915E-003;1.029840088449419E-003;
2.402833333333334E+009;1.629804819822311E-001;6.130203232169151E-002;-6.029082462191582E-003;1.158078783191741E-003;
2.403000000000000E+009;1.644272804260254E-001;5.915860831737518E-002;-6.019791122525930E-003;1.239607576280832E-003;
2.403166666666667E+009;1.662181019783020E-001;5.687574669718742E-002;-6.140243727713823E-003;1.353366649709642E-003;
2.403333333333334E+009;1.675909459590912E-001;5.440822243690491E-002;-6.222295574843884E-003;1.589002436958253E-003;
2.403500000000000E+009;1.694301664829254E-001;5.251338332891464E-002;-6.122999358922243E-003;1.633879845030606E-003;
2.403666666666667E+009;1.710287630558014E-001;5.057442560791969E-002;-6.098920013755560E-003;1.899198279716075E-003;
2.403833333333334E+009;1.726246923208237E-001;4.881785809993744E-002;-6.125360261648893E-003;2.041405998170376E-003;
2.404000000000000E+009;1.741489022970200E-001;4.694641008973122E-002;-6.152522284537554E-003;2.178185153752565E-003;
2.404166666666667E+009;1.759754121303558E-001;4.551162570714951E-002;-6.028997246176004E-003;2.573953010141850E-003;
2.404333333333334E+009;1.775545179843903E-001;4.393870756030083E-002;-5.978626199066639E-003;2.898734761402011E-003;
2.404500000000000E+009;1.793114542961121E-001;4.251621663570404E-002;-5.780869629234076E-003;2.878533443436027E-003;
2.404666666666667E+009;1.808581054210663E-001;4.147665202617645E-002;-5.694992374628782E-003;3.064413089305162E-003;
2.404833333333334E+009;1.824337989091873E-001;4.031347110867500E-002;-5.547361914068461E-003;3.167480230331421E-003;
2.405000000000000E+009;1.840118169784546E-001;3.981712833046913E-002;-5.404383409768343E-003;3.464599605649710E-003;
2.405166666666667E+009;1.854197829961777E-001;3.919234499335289E-002;-5.017083138227463E-003;3.494324162602425E-003;
2.405333333333334E+009;1.869862228631973E-001;3.864185512065888E-002;-4.990965127944946E-003;3.301486372947693E-003;
2.405500000000000E+009;1.883410662412643E-001;3.783062845468521E-002;-5.089478567242622E-003;3.814983647316694E-003;
2.405666666666667E+009;1.893927305936813E-001;3.765407204627991E-002;-4.564946983009577E-003;3.857197239995003E-003;
2.405833333333334E+009;1.907602548599243E-001;3.709092363715172E-002;-4.791636951267719E-003;4.204219207167625E-003;
2.406000000000000E+009;1.916437149047852E-001;3.708467632532120E-002;-4.249336663633585E-003;4.349504597485066E-003;
2.406166666666667E+009;1.926365494728088E-001;3.691426292061806E-002;-4.596994258463383E-003;4.171150270849466E-003;
2.406333333333334E+009;1.934342533349991E-001;3.682784736156464E-002;-4.349253606051207E-003;4.421780817210674E-003;
2.406500000000000E+009;1.944245845079422E-001;3.711923584342003E-002;-4.219081718474627E-003;4.279319662600756E-003;
2.406666666666667E+009;1.947658061981201E-001;3.714697435498238E-002;-3.906041849404573E-003;4.350631963461638E-003;
2.406833333333334E+009;1.954687386751175E-001;3.711517900228500E-002;-3.894189605489373E-003;4.598078783601522E-003;
2.407000000000000E+009;1.957179605960846E-001;3.747790679335594E-002;-3.758371807634831E-003;4.546367563307285E-003;
2.407166666666667E+009;1.962093859910965E-001;3.723619505763054E-002;-3.591842250898480E-003;4.635233432054520E-003;
2.407333333333334E+009;1.959387063980103E-001;3.739170357584953E-002;-3.427543910220265E-003;4.629516508430243E-003;
2.407500000000000E+009;1.958411931991577E-001;3.760342299938202E-002;-3.579506883397698E-003;4.709646105766296E-003;
2.407666666666667E+009;1.958267986774445E-001;3.752532601356506E-002;-3.207830945029855E-003;4.950726404786110E-003;
2.407833333333334E+009;1.953612565994263E-001;3.743291273713112E-002;-3.290870692580938E-003;4.995375871658325E-003;
2.408000000000000E+009;1.952737569808960E-001;3.730586171150208E-002;-3.073260886594653E-003;4.877196624875069E-003;
2.408166666666667E+009;1.946601122617722E-001;3.702987357974052E-002;-3.020183648914099E-003;5.029215477406979E-003;
2.408333333333334E+009;1.941427737474442E-001;3.661005198955536E-002;-2.836558734998107E-003;5.155409686267376E-003;
2.408500000000000E+009;1.933605670928955E-001;3.643435239791870E-002;-2.596593461930752E-003;5.335371010005474E-003;
2.408666666666667E+009;1.927998065948486E-001;3.586890920996666E-002;-2.518911380320787E-003;5.370240192860365E-003;
2.408833333333334E+009;1.920816749334335E-001;3.522123768925667E-002;-2.538947155699134E-003;5.296291783452034E-003;
2.409000000000000E+009;1.911340653896332E-001;3.427539765834808E-002;-2.348997630178928E-003;5.320318043231964E-003;
2.409166666666667E+009;1.902120709419251E-001;3.332867473363876E-002;-2.166978782042861E-003;5.533396266400814E-003;
2.409333333333334E+009;1.892845630645752E-001;3.234196081757546E-002;-2.101318445056677E-003;5.480058956891298E-003;
2.409500000000000E+009;1.882841140031815E-001;3.107844851911068E-002;-2.028379356488586E-003;5.494367796927691E-003;
2.409666666666667E+009;1.871553361415863E-001;2.969931624829769E-002;-1.936608226969838E-003;5.726164672523737E-003;
2.409833333333334E+009;1.861976683139801E-001;2.835997007787228E-002;-1.763604697771370E-003;5.614600609987974E-003;
2.410000000000000E+009;1.851471364498138E-001;2.681194432079792E-002;-1.621794071979821E-003;5.704472307115793E-003;
2.410166666666667E+009;1.841916590929031E-001;2.480939589440823E-002;-1.497649587690830E-003;5.861806683242321E-003;
2.410333333333334E+009;1.831227540969849E-001;2.300711162388325E-002;-1.256726798601449E-003;5.926116835325956E-003;
2.410500000000000E+009;1.823181658983231E-001;2.101280540227890E-002;-1.049677492119372E-003;5.924194585531950E-003;
2.410666666666667E+009;1.813566982746124E-001;1.886676438152790E-002;-8.249179809354246E-004;6.011652294546366E-003;
2.410833333333334E+009;1.807398051023483E-001;1.666735857725143E-002;-6.523854681290686E-004;6.014067679643631E-003;
2.411000000000000E+009;1.799176037311554E-001;1.437730342149735E-002;-4.939279751852155E-004;6.041397806257010E-003;
2.411166666666667E+009;1.792944371700287E-001;1.226646453142166E-002;-3.196487959939987E-004;6.072825752198696E-003;
2.411333333333334E+009;1.785998046398163E-001;9.618520736694336E-003;5.842701284564100E-005;6.018924992531538E-003;
2.411500000000000E+009;1.783447712659836E-001;7.442206144332886E-003;1.750012597767636E-004;5.992078687995672E-003;
2.411666666666667E+009;1.782059669494629E-001;5.001058802008629E-003;2.564013702794910E-004;6.055438891053200E-003;
2.411833333333334E+009;1.777604371309280E-001;2.415836555883288E-003;4.699260753113776E-004;5.876309238374233E-003;
2.412000000000000E+009;1.779480129480362E-001;8.456250361632556E-005;8.223420009016991E-004;5.703490227460861E-003;
2.412166666666667E+009;1.780320256948471E-001;-2.408289117738605E-003;9.411659557372332E-004;5.636552814394236E-003;
2.412333333333334E+009;1.781167387962341E-001;-4.920373670756817E-003;1.008766936138272E-003;5.416619125753641E-003;
2.412500000000000E+009;1.787451505661011E-001;-7.266607601195574E-003;9.709654259495437E-004;5.473006516695023E-003;
2.412666666666667E+009;1.790437996387482E-001;-9.761094115674496E-003;1.275351736694574E-003;5.319941323250532E-003;
2.412833333333334E+009;1.800182461738586E-001;-1.227227877825499E-002;1.371041405946016E-003;5.211002659052610E-003;
2.413000000000000E+009;1.806794852018356E-001;-1.457292400300503E-002;1.292792265303433E-003;5.168683826923370E-003;
2.413166666666667E+009;1.815091818571091E-001;-1.679379865527153E-002;1.452591270208359E-003;4.944331943988800E-003;
2.413333333333334E+009;1.823902875185013E-001;-1.920963078737259E-002;1.374978222884238E-003;5.158348940312862E-003;
2.413500000000000E+009;1.833947002887726E-001;-2.137894555926323E-002;1.764837768860161E-003;4.955209791660309E-003;
2.413666666666667E+009;1.846474856138229E-001;-2.341590262949467E-002;1.747840200550854E-003;5.053317174315453E-003;
2.413833333333334E+009;1.855731308460236E-001;-2.560996823012829E-002;1.863580546341837E-003;4.960244987159967E-003;
2.414000000000000E+009;1.867187470197678E-001;-2.767356112599373E-002;1.954577630385757E-003;4.883361048996449E-003;
2.414166666666667E+009;1.881191730499268E-001;-2.944643236696720E-002;1.935784122906625E-003;4.852894227951765E-003;
2.414333333333334E+009;1.891593188047409E-001;-3.139813989400864E-002;2.238927641883493E-003;4.809591453522444E-003;
2.414500000000000E+009;1.905661076307297E-001;-3.292611613869667E-002;2.237185370177031E-003;4.856677725911140E-003;
2.414666666666667E+009;1.916392892599106E-001;-3.426537662744522E-002;2.570718294009566E-003;4.725301638245583E-003;
2.414833333333334E+009;1.928370743989945E-001;-3.564019501209259E-002;2.618301194161177E-003;4.775058478116989E-003;
2.415000000000000E+009;1.939851194620132E-001;-3.688087686896324E-002;2.809836529195309E-003;4.758525174111128E-003;
2.415166666666667E+009;1.952442824840546E-001;-3.803764656186104E-002;3.025976708158851E-003;4.644679836928845E-003;
2.415333333333334E+009;1.963988840579987E-001;-3.902963548898697E-002;3.225823165848851E-003;4.563171416521072E-003;
2.415500000000000E+009;1.974390149116516E-001;-3.972459957003593E-002;3.392231650650501E-003;4.304358270019293E-003;
2.415666666666667E+009;1.984724104404450E-001;-4.058514162898064E-002;3.607282182201743E-003;4.249359946697950E-003;
2.415833333333334E+009;1.992163658142090E-001;-4.100482910871506E-002;3.598671406507492E-003;3.996490500867367E-003;
2.416000000000000E+009;2.001639157533646E-001;-4.168928787112236E-002;3.756939899176359E-003;3.993712365627289E-003;
2.416166666666667E+009;2.008528113365173E-001;-4.216174781322479E-002;3.815724747255445E-003;3.799286438152194E-003;
2.416333333333334E+009;2.014801055192947E-001;-4.237928986549377E-002;3.893660148605704E-003;3.704017959535122E-003;
2.416500000000000E+009;2.019555717706680E-001;-4.265825450420380E-002;4.060497973114252E-003;3.380320267751813E-003;
2.416666666666667E+009;2.021894156932831E-001;-4.293154925107956E-002;4.055741708725691E-003;3.399075940251350E-003;
2.416833333333334E+009;2.024113237857819E-001;-4.289923608303070E-002;4.168891347944737E-003;3.408898133784533E-003;
2.417000000000000E+009;2.025689780712128E-001;-4.299625009298325E-002;4.088051617145538E-003;3.009623847901821E-003;
2.417166666666667E+009;2.023618519306183E-001;-4.285489022731781E-002;4.358397331088781E-003;3.092604223638773E-003;
2.417333333333334E+009;2.021422386169434E-001;-4.271098226308823E-002;4.307932220399380E-003;2.911530667915940E-003;
2.417500000000000E+009;2.018240392208099E-001;-4.261616989970207E-002;4.426952451467514E-003;2.835272112861276E-003;
2.417666666666667E+009;2.013201266527176E-001;-4.235329106450081E-002;4.596015904098749E-003;2.895056270062923E-003;
2.417833333333334E+009;2.009185552597046E-001;-4.217873141169548E-002;4.531802143901587E-003;2.632835879921913E-003;
2.418000000000000E+009;2.002181559801102E-001;-4.186130687594414E-002;4.711857065558434E-003;2.500202972441912E-003;
2.418166666666667E+009;1.994525492191315E-001;-4.187917336821556E-002;4.728490952402353E-003;2.394103677943349E-003;
2.418333333333334E+009;1.985110491514206E-001;-4.158893600106239E-002;4.878817126154900E-003;2.344998763874173E-003;
2.418500000000000E+009;1.974886506795883E-001;-4.165830835700035E-002;5.004763137549162E-003;2.293082419782877E-003;
2.418666666666667E+009;1.965846568346024E-001;-4.158704355359078E-002;5.196015816181898E-003;2.008874434977770E-003;
2.418833333333334E+009;1.953401118516922E-001;-4.180614277720451E-002;5.234385840594769E-003;1.873614732176065E-003;
2.419000000000000E+009;1.940792053937912E-001;-4.197293519973755E-002;5.439839791506529E-003;1.572540146298707E-003;
2.419166666666667E+009;1.928226649761200E-001;-4.223524406552315E-002;5.369099788367748E-003;1.396910520270467E-003;
2.419333333333334E+009;1.914027631282806E-001;-4.270839318633080E-002;5.478599574416876E-003;1.141254906542599E-003;
2.419500000000000E+009;1.899746656417847E-001;-4.317901656031609E-002;5.525909364223480E-003;8.675415883772075E-004;
2.419666666666667E+009;1.882541030645371E-001;-4.394060373306274E-002;5.475140176713467E-003;5.629454390145838E-004;
2.419833333333334E+009;1.867071837186813E-001;-4.455512389540672E-002;5.460336338728666E-003;3.443735477048904E-004;
2.420000000000000E+009;1.850702166557312E-001;-4.532419145107269E-002;5.395157728344202E-003;8.136359610944055E-006;
2.420166666666667E+009;1.835519075393677E-001;-4.642255976796150E-002;5.292355082929134E-003;-1.030436760629527E-004;
2.420333333333334E+009;1.818491071462631E-001;-4.765219986438751E-002;4.934151656925678E-003;-4.627677553799003E-004;
2.420500000000000E+009;1.803316324949265E-001;-4.896287620067596E-002;4.794824868440628E-003;-4.898684564977884E-004;
2.420666666666667E+009;1.786651760339737E-001;-5.010725557804108E-002;4.508609883487225E-003;-8.005734998732805E-004;
2.420833333333334E+009;1.770139187574387E-001;-5.166808515787125E-002;4.462679848074913E-003;-6.135329604148865E-004;
2.421000000000000E+009;1.755571216344833E-001;-5.319338291883469E-002;4.298367071896792E-003;-8.628842770121992E-004;
2.421166666666667E+009;1.740892082452774E-001;-5.495039373636246E-002;3.940454684197903E-003;-7.414508727379143E-004;
2.421333333333334E+009;1.726249903440476E-001;-5.658717826008797E-002;4.009000957012177E-003;-8.864629198797047E-004;
2.421500000000000E+009;1.712804734706879E-001;-5.847878754138947E-002;3.935805987566710E-003;-7.165363640524447E-004;
2.421666666666667E+009;1.698239892721176E-001;-6.033085286617279E-002;3.701093140989542E-003;-7.529346621595323E-004;
2.421833333333334E+009;1.688278466463089E-001;-6.228299811482430E-002;3.739921608939767E-003;-6.567052914761007E-004;
2.422000000000000E+009;1.676923334598541E-001;-6.411880254745483E-002;3.679110901430249E-003;-7.120532682165504E-004;
2.422166666666667E+009;1.667511910200119E-001;-6.628589332103729E-002;3.635815577581525E-003;-6.108376546762884E-004;
2.422333333333334E+009;1.657720208168030E-001;-6.838027387857437E-002;3.709543496370316E-003;-6.967833614908159E-004;
2.422500000000000E+009;1.649473011493683E-001;-7.036490738391876E-002;3.817361779510975E-003;-5.294215516187251E-004;
2.422666666666667E+009;1.642097234725952E-001;-7.247763872146606E-002;3.660447662696242E-003;-6.758336094208062E-004;
2.422833333333334E+009;1.639678776264191E-001;-7.454352825880051E-002;3.606448648497462E-003;-8.901270921342075E-004;
2.423000000000000E+009;1.633722186088562E-001;-7.643475383520126E-002;3.912161104381084E-003;-7.128198631107807E-004;
2.423166666666667E+009;1.629835069179535E-001;-7.846118509769440E-002;3.789609298110008E-003;-8.676204015500844E-004;
2.423333333333334E+009;1.628383547067642E-001;-8.054223656654358E-002;3.758626990020275E-003;-9.338397067040205E-004;
2.423500000000000E+009;1.627720445394516E-001;-8.231358230113983E-002;3.897182410582900E-003;-1.165556372143328E-003;
2.423666666666667E+009;1.627932190895081E-001;-8.427344262599945E-002;3.704654984176159E-003;-1.318071037530899E-003;
2.423833333333334E+009;1.627814620733261E-001;-8.603459596633911E-002;3.845216939225793E-003;-1.229718560352922E-003;
2.424000000000000E+009;1.629409193992615E-001;-8.786501735448837E-002;3.731871955096722E-003;-1.405303133651614E-003;
2.424166666666667E+009;1.630933135747910E-001;-8.927972614765167E-002;3.620303003117442E-003;-1.567925908602774E-003;
2.424333333333334E+009;1.632585972547531E-001;-9.105642884969711E-002;3.545254934579134E-003;-1.587272621691227E-003;
2.424500000000000E+009;1.635768264532089E-001;-9.279584884643555E-002;3.653327468782663E-003;-1.717463368549943E-003;
2.424666666666667E+009;1.638343781232834E-001;-9.422054886817932E-002;3.638079389929771E-003;-1.742849475704134E-003;
2.424833333333334E+009;1.644567400217056E-001;-9.531256556510925E-002;3.593720495700836E-003;-1.788479625247419E-003;
2.425000000000000E+009;1.647116988897324E-001;-9.660317748785019E-002;3.441136097535491E-003;-2.010576194152236E-003;
2.425166666666667E+009;1.651274710893631E-001;-9.765242785215378E-002;3.458171151578426E-003;-1.997225219383836E-003;
2.425333333333334E+009;1.654946953058243E-001;-9.869103878736496E-002;3.542008576914668E-003;-2.113140653818846E-003;
2.425500000000000E+009;1.659825146198273E-001;-9.955184906721115E-002;3.328192280605435E-003;-2.209760481491685E-003;
2.425666666666667E+009;1.663361042737961E-001;-1.002013906836510E-001;3.451844211667776E-003;-2.179502509534359E-003;
2.425833333333334E+009;1.667105704545975E-001;-1.010218635201454E-001;3.211638890206814E-003;-2.286384114995599E-003;
2.426000000000000E+009;1.670838147401810E-001;-1.014566347002983E-001;3.413570113480091E-003;-2.274074824526906E-003;
2.426166666666667E+009;1.675167083740234E-001;-1.019218340516090E-001;3.286717459559441E-003;-2.669465495273471E-003;
2.426333333333334E+009;1.676855385303497E-001;-1.023646593093872E-001;3.271487075835466E-003;-2.465446013957262E-003;
2.426500000000000E+009;1.679975688457489E-001;-1.026730313897133E-001;3.172908909618855E-003;-2.693199086934328E-003;
2.426666666666667E+009;1.683270186185837E-001;-1.029802411794663E-001;3.069200552999973E-003;-2.812139224261046E-003;
2.426833333333334E+009;1.686307489871979E-001;-1.031949818134308E-001;3.039979608729482E-003;-2.865471178665757E-003;
2.427000000000000E+009;1.685719043016434E-001;-1.034037470817566E-001;3.013438079506159E-003;-3.082922659814358E-003;
2.427166666666667E+009;1.686688065528870E-001;-1.033790260553360E-001;3.054962260648608E-003;-3.114707302302122E-003;
2.427333333333334E+009;1.685504615306854E-001;-1.037480086088181E-001;2.892106305807829E-003;-3.240441670641303E-003;
2.427500000000000E+009;1.682145595550537E-001;-1.038788482546806E-001;2.826910698786378E-003;-3.364999778568745E-003;
2.427666666666667E+009;1.679564863443375E-001;-1.038428172469139E-001;2.643231768161058E-003;-3.377532586455345E-003;
2.427833333333334E+009;1.675675064325333E-001;-1.040221527218819E-001;2.671225694939494E-003;-3.391069360077381E-003;
