# Version 1.00
#
freq[Hz];re:Trc1_S11;im:Trc1_S11;re:Trc2_S21;im:Trc2_S21;
2.400000000000000E+009;1.548467576503754E-001;1.066740080714226E-001;-7.897813804447651E-003;-2.405247185379267E-003;
2.400166666666667E+009;1.546165347099304E-001;1.042977944016457E-001;-8.041216991841793E-003;-2.101277234032750E-003;
2.400333333333334E+009;1.546598076820374E-001;1.019716262817383E-001;-8.088639006018639E-003;-1.687392359599471E-003;
2.400500000000000E+009;1.546523272991180E-001;9.946545213460922E-002;-8.127367123961449E-003;-1.194034237414599E-003;
2.400666666666667E+009;1.547694504261017E-001;9.683937579393387E-002;-8.100419305264950E-003;-8.229059167206287E-004;
2.400833333333334E+009;1.548190861940384E-001;9.400717914104462E-002;-8.011301048099995E-003;-3.951761464122683E-004;
2.401000000000000E+009;1.548747569322586E-001;9.122596681118012E-002;-7.741997018456459E-003;-1.412331184837967E-004;
2.401166666666667E+009;1.551608294248581E-001;8.831965923309326E-002;-7.522969041019678E-003;3.177772159688175E-004;
2.401333333333334E+009;1.556014269590378E-001;8.564958721399307E-002;-7.197810802608728E-003;5.515882512554526E-004;
2.401500000000000E+009;1.560552418231964E-001;8.244740962982178E-002;-7.190196309238672E-003;7.775789708830416E-004;
2.401666666666667E+009;1.564037054777145E-001;7.965429127216339E-002;-6.710014306008816E-003;8.151393849402666E-004;
2.401833333333334E+009;1.568336784839630E-001;7.681548595428467E-002;-6.636461243033409E-003;9.606610401533544E-004;
2.402000000000000E+009;1.578168123960495E-001;7.403156161308289E-002;-6.487851962447166E-003;1.058319467119873E-003;
2.402166666666667E+009;1.585971862077713E-001;7.151901721954346E-002;-6.331535521894693E-003;1.135098398663104E-003;
2.402333333333334E+009;1.595081388950348E-001;6.879521161317825E-002;-6.161733530461788E-003;1.171833369880915E-003;
2.402500000000000E+009;1.607400923967362E-001;6.597265601158142E-002;-5.984697490930557E-003;1.046187710016966E-003;
2.402666666666667E+009;1.618282943964005E-001;6.374337524175644E-002;-6.033268757164478E-003;1.141460030339658E-003;
2.402833333333334E+009;1.630838215351105E-001;6.124995276331902E-002;-6.143640726804733E-003;1.400977256707847E-003;
2.403000000000000E+009;1.643789857625961E-001;5.909531190991402E-002;-6.060739979147911E-003;1.313062035478652E-003;
2.403166666666667E+009;1.661512106657028E-001;5.658964440226555E-002;-6.004702765494585E-003;1.312387990765274E-003;
2.403333333333334E+009;1.676145493984222E-001;5.454811081290245E-002;-6.163339596241713E-003;1.587205566465855E-003;
2.403500000000000E+009;1.693616509437561E-001;5.248144641518593E-002;-6.295988801866770E-003;1.756884390488267E-003;
2.403666666666667E+009;1.710348874330521E-001;5.065625160932541E-002;-6.037424318492413E-003;1.916092005558312E-003;
2.403833333333334E+009;1.726576685905457E-001;4.863173887133598E-002;-6.182430777698755E-003;2.196572721004486E-003;
2.404000000000000E+009;1.741544306278229E-001;4.690105095505714E-002;-6.023524329066277E-003;2.338690916076303E-003;
2.404166666666667E+009;1.759659200906754E-001;4.537402465939522E-002;-5.983047652989626E-003;2.525640418753028E-003;
2.404333333333334E+009;1.775901615619659E-001;4.380679503083229E-002;-5.776357371360064E-003;2.878212602809072E-003;
2.404500000000000E+009;1.792196482419968E-001;4.239477962255478E-002;-5.755126941949129E-003;2.898245118558407E-003;
2.404666666666667E+009;1.808122396469116E-001;4.140070453286171E-002;-5.684201139956713E-003;2.976104151457548E-003;
2.404833333333334E+009;1.826653480529785E-001;4.027028381824493E-002;-5.555836018174887E-003;3.272871952503920E-003;
2.405000000000000E+009;1.839277148246765E-001;3.954500332474709E-002;-5.367662757635117E-003;3.506549866870046E-003;
2.405166666666667E+009;1.855039596557617E-001;3.890478983521462E-002;-5.133877042680979E-003;3.572120796889067E-003;
2.405333333333334E+009;1.867285370826721E-001;3.830321878194809E-002;-5.026867613196373E-003;3.641419578343630E-003;
2.405500000000000E+009;1.881639212369919E-001;3.794676810503006E-002;-4.895038437098265E-003;3.785946639254689E-003;
2.405666666666667E+009;1.894352138042450E-001;3.743709251284599E-002;-4.932970274239779E-003;3.903310280293226E-003;
2.405833333333334E+009;1.906793862581253E-001;3.726825490593910E-002;-4.559593275189400E-003;3.945420030504465E-003;
2.406000000000000E+009;1.916439384222031E-001;3.709068149328232E-002;-4.581614863127470E-003;4.076664801687002E-003;
2.406166666666667E+009;1.926549822092056E-001;3.692938014864922E-002;-4.418427590280771E-003;4.078072961419821E-003;
2.406333333333334E+009;1.935067027807236E-001;3.691772371530533E-002;-4.102238919585943E-003;4.166732542216778E-003;
2.406500000000000E+009;1.942523717880249E-001;3.693971782922745E-002;-4.194871522486210E-003;4.268677905201912E-003;
2.406666666666667E+009;1.947933584451675E-001;3.707091137766838E-002;-3.991031553596258E-003;4.419832490384579E-003;
2.406833333333334E+009;1.952233165502548E-001;3.696935623884201E-002;-4.022852517664433E-003;4.462559241801500E-003;
2.407000000000000E+009;1.956022381782532E-001;3.731849044561386E-002;-3.843455109745264E-003;4.537364933639765E-003;
2.407166666666667E+009;1.959134191274643E-001;3.721561282873154E-002;-3.797768848016858E-003;4.609233234077692E-003;
2.407333333333334E+009;1.958171129226685E-001;3.739736601710320E-002;-3.582238452509046E-003;4.580385517328978E-003;
2.407500000000000E+009;1.957234293222427E-001;3.758434578776360E-002;-3.545939689502120E-003;4.852399230003357E-003;
2.407666666666667E+009;1.957160830497742E-001;3.749789670109749E-002;-3.436980769038200E-003;5.087826400995255E-003;
2.407833333333334E+009;1.953216940164566E-001;3.750248998403549E-002;-3.194121643900871E-003;4.888702649623156E-003;
2.408000000000000E+009;1.951075196266174E-001;3.731397539377213E-002;-2.981623401865363E-003;4.945215769112110E-003;
2.408166666666667E+009;1.946180611848831E-001;3.707828372716904E-002;-3.015217604115605E-003;5.266829393804073E-003;
2.408333333333334E+009;1.940075010061264E-001;3.655172511935234E-002;-2.826746320351958E-003;5.137642845511437E-003;
2.408500000000000E+009;1.933964043855667E-001;3.624083474278450E-002;-2.601926447823644E-003;5.169678013771772E-003;
2.408666666666667E+009;1.927251666784287E-001;3.583041206002235E-002;-2.493267180398107E-003;5.273945163935423E-003;
2.408833333333334E+009;1.920547038316727E-001;3.514277562499046E-002;-2.479566261172295E-003;5.347867961972952E-003;
2.409000000000000E+009;1.910732984542847E-001;3.422308340668678E-002;-2.305892296135426E-003;5.428950767964125E-003;
2.409166666666667E+009;1.900570243597031E-001;3.329890221357346E-002;-2.165655838325620E-003;5.376110784709454E-003;
2.409333333333334E+009;1.891882270574570E-001;3.239459544420242E-002;-2.077235607430339E-003;5.373497027903795E-003;
2.409500000000000E+009;1.880894601345062E-001;3.104905970394611E-002;-1.977977342903614E-003;5.380708724260330E-003;
2.409666666666667E+009;1.870838105678558E-001;2.976267971098423E-002;-1.920715207234025E-003;5.657199304550886E-003;
2.409833333333334E+009;1.860917210578919E-001;2.818321809172630E-002;-1.742772525176406E-003;5.532947368919849E-003;
2.410000000000000E+009;1.851068735122681E-001;2.661499381065369E-002;-1.585351419635117E-003;5.662658717483282E-003;
2.410166666666667E+009;1.839448362588882E-001;2.474103309214115E-002;-1.485833432525396E-003;5.716536194086075E-003;
2.410333333333334E+009;1.830636560916901E-001;2.299072779715061E-002;-1.274648820981383E-003;5.716929677873850E-003;
2.410500000000000E+009;1.821722537279129E-001;2.111308649182320E-002;-1.095314277336001E-003;6.014778744429350E-003;
2.410666666666667E+009;1.812586337327957E-001;1.876737922430039E-002;-8.886455907486379E-004;6.021589972078800E-003;
2.410833333333334E+009;1.806041002273560E-001;1.665246300399303E-002;-7.180207758210599E-004;5.965761374682188E-003;
2.411000000000000E+009;1.798658072948456E-001;1.461312919855118E-002;-4.398672317620367E-004;5.902947857975960E-003;
2.411166666666667E+009;1.791095435619354E-001;1.231101807206869E-002;-1.877901231637225E-004;5.881211720407009E-003;
2.411333333333334E+009;1.786869764328003E-001;9.607911109924316E-003;-3.676602136692964E-005;5.891978740692139E-003;
2.411500000000000E+009;1.781579405069351E-001;7.347664330154657E-003;2.502578427083790E-004;5.833958741277456E-003;
2.411666666666667E+009;1.781402677297592E-001;4.904718603938818E-003;2.689741377253085E-004;5.814037751406431E-003;
2.411833333333334E+009;1.777260750532150E-001;2.557381754741073E-003;6.075938581489027E-004;5.747489165514708E-003;
2.412000000000000E+009;1.778697371482849E-001;7.854497380321845E-005;6.191376014612615E-004;5.816383287310600E-003;
2.412166666666667E+009;1.780183911323547E-001;-2.224232768639922E-003;9.387512691318989E-004;5.545452702790499E-003;
2.412333333333334E+009;1.782111376523972E-001;-4.964387509971857E-003;1.166659523732960E-003;5.472557619214058E-003;
2.412500000000000E+009;1.786117851734161E-001;-7.189244031906128E-003;1.178093021735549E-003;5.376918707042933E-003;
2.412666666666667E+009;1.791685968637466E-001;-9.991687722504139E-003;1.125924638472498E-003;5.225266329944134E-003;
2.412833333333334E+009;1.797431111335754E-001;-1.228167209774256E-002;1.329896040260792E-003;5.252158269286156E-003;
2.413000000000000E+009;1.805505603551865E-001;-1.454167719930410E-002;1.341922208666802E-003;5.084812175482512E-003;
2.413166666666667E+009;1.813916563987732E-001;-1.683427952229977E-002;1.573396730236709E-003;5.100656766444445E-003;
2.413333333333334E+009;1.824389100074768E-001;-1.907953433692455E-002;1.571624306961894E-003;4.939750302582979E-003;
2.413500000000000E+009;1.832305490970612E-001;-2.142724208533764E-002;1.525064348243177E-003;5.066922400146723E-003;
2.413666666666667E+009;1.845681965351105E-001;-2.344328351318836E-002;1.632541418075562E-003;5.111105274409056E-003;
2.413833333333334E+009;1.857315599918366E-001;-2.562430873513222E-002;1.653338200412691E-003;4.998280666768551E-003;
2.414000000000000E+009;1.867307126522064E-001;-2.756994031369686E-002;1.839528908021748E-003;4.981328267604113E-003;
2.414166666666667E+009;1.880915910005570E-001;-2.915873937308788E-002;2.097222721204162E-003;4.931475501507521E-003;
2.414333333333334E+009;1.892462670803070E-001;-3.122549690306187E-002;2.268429612740874E-003;5.037662107497454E-003;
2.414500000000000E+009;1.904827505350113E-001;-3.278996050357819E-002;2.451688749715686E-003;4.925135057419539E-003;
2.414666666666667E+009;1.915736794471741E-001;-3.429292887449265E-002;2.622090280056000E-003;4.790259525179863E-003;
2.414833333333334E+009;1.928110569715500E-001;-3.555548191070557E-002;2.710829023271799E-003;4.717088304460049E-003;
2.415000000000000E+009;1.939649432897568E-001;-3.685802593827248E-002;3.019323572516441E-003;4.680738784372807E-003;
2.415166666666667E+009;1.952393501996994E-001;-3.802624717354775E-002;3.123452654108405E-003;4.544079303741455E-003;
2.415333333333334E+009;1.963069289922714E-001;-3.897640109062195E-002;3.245397005230188E-003;4.459472838789225E-003;
2.415500000000000E+009;1.975015103816986E-001;-3.961348533630371E-002;3.271899651736021E-003;4.423104226589203E-003;
2.415666666666667E+009;1.985434889793396E-001;-4.045755788683891E-002;3.494970733299851E-003;4.194949287921190E-003;
2.415833333333334E+009;1.993783265352249E-001;-4.108942300081253E-002;3.599376883357763E-003;3.977051936089993E-003;
2.416000000000000E+009;2.001432329416275E-001;-4.167768359184265E-002;3.670361591503024E-003;4.087294451892376E-003;
2.416166666666667E+009;2.007647752761841E-001;-4.217217490077019E-002;3.839056240394712E-003;3.948642872273922E-003;
2.416333333333334E+009;2.014712393283844E-001;-4.230434447526932E-002;3.943466581404209E-003;3.716132370755076E-003;
2.416500000000000E+009;2.019860148429871E-001;-4.266440495848656E-002;3.974525257945061E-003;3.657119348645210E-003;
2.416666666666667E+009;2.022147029638290E-001;-4.293944314122200E-002;4.073606338351965E-003;3.345513250678778E-003;
2.416833333333334E+009;2.024795711040497E-001;-4.296932369470596E-002;4.095711279660463E-003;3.201737999916077E-003;
2.417000000000000E+009;2.025209069252014E-001;-4.298430681228638E-002;4.254902713000774E-003;3.314655506983399E-003;
2.417166666666667E+009;2.021724283695221E-001;-4.283712431788445E-002;4.308445379137993E-003;3.011860419064760E-003;
2.417333333333334E+009;2.019823938608170E-001;-4.263582080602646E-002;4.205180332064629E-003;2.878767903894186E-003;
2.417500000000000E+009;2.017061263322830E-001;-4.261618107557297E-002;4.337019287049770E-003;2.813592785969377E-003;
2.417666666666667E+009;2.012965977191925E-001;-4.233865067362785E-002;4.379684105515480E-003;2.855553990229964E-003;
2.417833333333334E+009;2.008398771286011E-001;-4.219365492463112E-002;4.420759156346321E-003;2.724628895521164E-003;
2.418000000000000E+009;2.001507282257080E-001;-4.188802093267441E-002;4.670918453484774E-003;2.659457037225366E-003;
2.418166666666667E+009;1.995085924863815E-001;-4.174310341477394E-002;4.689075984060764E-003;2.542602829635143E-003;
2.418333333333334E+009;1.985140144824982E-001;-4.154926910996437E-002;4.962914623320103E-003;2.415784401819110E-003;
2.418500000000000E+009;1.974037885665894E-001;-4.165713489055634E-002;4.951577167958021E-003;2.192284213379026E-003;
2.418666666666667E+009;1.964980512857437E-001;-4.149368405342102E-002;5.028367042541504E-003;1.978736137971282E-003;
2.418833333333334E+009;1.952396184206009E-001;-4.168797656893730E-002;5.138017702847719E-003;1.870844862423837E-003;
2.419000000000000E+009;1.940123736858368E-001;-4.185254499316216E-002;5.333998706191778E-003;1.588252722285688E-003;
2.419166666666667E+009;1.927455365657806E-001;-4.204325750470161E-002;5.242154933512211E-003;1.416772371158004E-003;
2.419333333333334E+009;1.912991255521774E-001;-4.268915578722954E-002;5.381020717322826E-003;1.013008761219680E-003;
2.419500000000000E+009;1.898167729377747E-001;-4.306956753134728E-002;5.463877227157354E-003;9.017351549118757E-004;
2.419666666666667E+009;1.883070170879364E-001;-4.384403675794601E-002;5.399860907346010E-003;4.926515975967050E-004;
2.419833333333334E+009;1.865502297878265E-001;-4.453622549772263E-002;5.475742742419243E-003;2.953845250885934E-004;
2.420000000000000E+009;1.851603537797928E-001;-4.553064331412315E-002;5.241322331130505E-003;1.135428537963890E-004;
2.420166666666667E+009;1.834019571542740E-001;-4.636926203966141E-002;5.107583012431860E-003;-2.848247822839767E-004;
2.420333333333334E+009;1.817691773176193E-001;-4.761615395545960E-002;4.974714946001768E-003;-4.087942070327699E-004;
2.420500000000000E+009;1.801730096340179E-001;-4.887836053967476E-002;4.919012077152729E-003;-5.265759536996484E-004;
2.420666666666667E+009;1.785505712032318E-001;-4.999699071049690E-002;4.631935618817806E-003;-7.044318481348455E-004;
2.420833333333334E+009;1.768773943185806E-001;-5.161312967538834E-002;4.402182064950466E-003;-7.012836867943406E-004;
2.421000000000000E+009;1.753857284784317E-001;-5.311767011880875E-002;4.330927506089211E-003;-7.861148333176971E-004;
2.421166666666667E+009;1.740341633558273E-001;-5.485339090228081E-002;4.086890723556280E-003;-8.795147296041250E-004;
2.421333333333334E+009;1.722822934389114E-001;-5.654441192746162E-002;4.073734395205975E-003;-6.991017144173384E-004;
2.421500000000000E+009;1.710962206125259E-001;-5.840553715825081E-002;3.887982340529561E-003;-8.290741825476289E-004;
2.421666666666667E+009;1.698400974273682E-001;-6.022968888282776E-002;3.754382720217109E-003;-8.984693558886647E-004;
2.421833333333334E+009;1.688047200441361E-001;-6.218492612242699E-002;3.806708147749305E-003;-6.561082554981113E-004;
2.422000000000000E+009;1.675396263599396E-001;-6.405189633369446E-002;3.726343624293804E-003;-6.723644328303635E-004;
2.422166666666667E+009;1.667022109031677E-001;-6.632460653781891E-002;3.650989616289735E-003;-5.892752087675035E-004;
2.422333333333334E+009;1.657327860593796E-001;-6.821820139884949E-002;3.658076049759984E-003;-7.717217085883021E-004;
2.422500000000000E+009;1.650158315896988E-001;-7.018508017063141E-002;3.767248243093491E-003;-6.311659235507250E-004;
2.422666666666667E+009;1.643085330724716E-001;-7.221359759569168E-002;3.791159251704812E-003;-6.685524131171405E-004;
2.422833333333334E+009;1.639716029167175E-001;-7.442262768745422E-002;3.816382726654410E-003;-8.168761851266027E-004;
2.423000000000000E+009;1.633564233779907E-001;-7.646038383245468E-002;3.864373546093702E-003;-1.000651274807751E-003;
2.423166666666667E+009;1.629696637392044E-001;-7.840206474065781E-002;3.834651317447424E-003;-1.136268838308752E-003;
2.423333333333334E+009;1.626593768596649E-001;-8.058346807956696E-002;3.784957807511091E-003;-1.188196241855621E-003;
2.423500000000000E+009;1.628091335296631E-001;-8.222220093011856E-002;3.832185175269842E-003;-1.126916380599141E-003;
2.423666666666667E+009;1.627483218908310E-001;-8.411134034395218E-002;3.760967170819640E-003;-1.156170503236353E-003;
2.423833333333334E+009;1.627653390169144E-001;-8.606150001287460E-002;3.674842882901430E-003;-1.249383087269962E-003;
2.424000000000000E+009;1.626721471548080E-001;-8.776149898767471E-002;3.655605018138886E-003;-1.496242941357195E-003;
2.424166666666667E+009;1.629427373409271E-001;-8.927191048860550E-002;3.676252672448754E-003;-1.385849784128368E-003;
2.424333333333334E+009;1.631141602993012E-001;-9.093900769948959E-002;3.646802855655551E-003;-1.519184443168342E-003;
2.424500000000000E+009;1.635418534278870E-001;-9.260503947734833E-002;3.718968247994781E-003;-1.601821160875261E-003;
2.424666666666667E+009;1.637901514768601E-001;-9.406453371047974E-002;3.601258154958487E-003;-1.568311126902700E-003;
2.424833333333334E+009;1.642588078975678E-001;-9.536673873662949E-002;3.635229310020804E-003;-1.873704255558550E-003;
2.425000000000000E+009;1.646791696548462E-001;-9.660944342613220E-002;3.619248513132334E-003;-1.869474188424647E-003;
2.425166666666667E+009;1.651009321212769E-001;-9.750793874263763E-002;3.489685244858265E-003;-1.766434521414340E-003;
2.425333333333334E+009;1.654258817434311E-001;-9.852579981088638E-002;3.595389192923904E-003;-1.965146511793137E-003;
2.425500000000000E+009;1.658161431550980E-001;-9.944825619459152E-002;3.504647174850106E-003;-2.044172026216984E-003;
2.425666666666667E+009;1.662477403879166E-001;-1.001522019505501E-001;3.432138590142131E-003;-2.217166125774384E-003;
2.425833333333334E+009;1.665182858705521E-001;-1.009947657585144E-001;3.470477415248752E-003;-2.356152748689055E-003;
2.426000000000000E+009;1.671357750892639E-001;-1.013170704245567E-001;3.232898656278849E-003;-2.391281072050333E-003;
2.426166666666667E+009;1.675039976835251E-001;-1.017773523926735E-001;3.312830813229084E-003;-2.382177626714110E-003;
2.426333333333334E+009;1.676593273878098E-001;-1.023241281509399E-001;3.343040123581886E-003;-2.541107358410955E-003;
2.426500000000000E+009;1.681113839149475E-001;-1.026005074381828E-001;3.251357935369015E-003;-2.519602188840509E-003;
2.426666666666667E+009;1.682068407535553E-001;-1.029462590813637E-001;3.125049173831940E-003;-2.578695304691792E-003;
2.426833333333334E+009;1.685583144426346E-001;-1.031639873981476E-001;3.116203937679529E-003;-2.907764399424195E-003;
2.427000000000000E+009;1.685152053833008E-001;-1.033695340156555E-001;3.052521962672472E-003;-2.928565489128232E-003;
2.427166666666667E+009;1.685962080955505E-001;-1.033844277262688E-001;2.950106747448444E-003;-3.092146944254637E-003;
2.427333333333334E+009;1.685085147619247E-001;-1.035656705498695E-001;2.941133920103312E-003;-3.039399627596140E-003;
2.427500000000000E+009;1.682568639516830E-001;-1.037892028689385E-001;2.846231684088707E-003;-3.057961817830801E-003;
2.427666666666667E+009;1.679767370223999E-001;-1.038317903876305E-001;2.713165013119578E-003;-3.199823200702667E-003;
2.427833333333334E+009;1.676615476608276E-001;-1.039795354008675E-001;2.636675955727696E-003;-3.387409728020430E-003;
