# Version 1.00
#
freq[Hz];re:Trc1_S11;im:Trc1_S11;re:Trc2_S21;im:Trc2_S21;
2.400000000000000E+009;1.547451615333557E-001;1.067266464233398E-001;-7.953844964504242E-003;-2.445162273943424E-003;
2.400166666666667E+009;1.544238179922104E-001;1.044007167220116E-001;-8.096749894320965E-003;-2.034391509369016E-003;
2.400333333333334E+009;1.545550376176834E-001;1.020087227225304E-001;-8.152713067829609E-003;-1.737279351800680E-003;
2.400500000000000E+009;1.544190198183060E-001;9.946160018444061E-002;-8.119226433336735E-003;-1.266714883968234E-003;
2.400666666666667E+009;1.544804722070694E-001;9.699381887912750E-002;-8.078917860984802E-003;-7.004193612374365E-004;
2.400833333333334E+009;1.547007411718369E-001;9.404020756483078E-002;-7.996054366230965E-003;-4.999052616767585E-004;
2.401000000000000E+009;1.548810005187988E-001;9.126186370849609E-002;-7.628670893609524E-003;2.585400943644345E-005;
2.401166666666667E+009;1.552122831344605E-001;8.837117254734039E-002;-7.554248441010714E-003;2.787483681458980E-004;
2.401333333333334E+009;1.556164324283600E-001;8.548531681299210E-002;-7.269753608852625E-003;4.628537571989000E-004;
2.401500000000000E+009;1.559262424707413E-001;8.268612623214722E-002;-6.988096982240677E-003;6.396097596734762E-004;
2.401666666666667E+009;1.562782973051071E-001;7.979939132928848E-002;-6.702982820570469E-003;8.136263350024819E-004;
2.401833333333334E+009;1.567686945199966E-001;7.704534381628037E-002;-6.623873952776194E-003;1.145811052992940E-003;
2.402000000000000E+009;1.578559875488281E-001;7.424170523881912E-002;-6.450178567320108E-003;1.039413502439857E-003;
2.402166666666667E+009;1.585422605276108E-001;7.153287529945374E-002;-6.409761495888233E-003;1.037644571624696E-003;
2.402333333333334E+009;1.595723330974579E-001;6.889320164918900E-002;-6.154291797429323E-003;1.178770908154547E-003;
2.402500000000000E+009;1.605689376592636E-001;6.627428531646729E-002;-6.075569894164801E-003;1.153352670371532E-003;
2.402666666666667E+009;1.619322896003723E-001;6.384000182151794E-002;-6.052406504750252E-003;1.112535712309182E-003;
2.402833333333334E+009;1.629897356033325E-001;6.140537187457085E-002;-6.006959360092878E-003;1.094623352400959E-003;
2.403000000000000E+009;1.643989086151123E-001;5.899307131767273E-002;-6.066205911338329E-003;1.280123600736260E-003;
2.403166666666667E+009;1.661076396703720E-001;5.673426389694214E-002;-6.046467926353216E-003;1.403639325872064E-003;
2.403333333333334E+009;1.675937622785568E-001;5.466639995574951E-002;-6.112496368587017E-003;1.530638313852251E-003;
2.403500000000000E+009;1.690925359725952E-001;5.249023437500000E-002;-6.033369340002537E-003;1.784232910722494E-003;
2.403666666666667E+009;1.711089611053467E-001;5.064251273870468E-002;-6.183983758091927E-003;1.839429838582873E-003;
2.403833333333334E+009;1.725312322378159E-001;4.872867837548256E-002;-6.349785253405571E-003;2.030827803537250E-003;
2.404000000000000E+009;1.742576658725739E-001;4.697954282164574E-002;-6.085543427616358E-003;2.162420656532049E-003;
2.404166666666667E+009;1.759896129369736E-001;4.548704624176025E-002;-5.934746004641056E-003;2.638623816892505E-003;
2.404333333333334E+009;1.774975657463074E-001;4.403043538331986E-002;-5.857907235622406E-003;2.750828396528959E-003;
2.404500000000000E+009;1.792534291744232E-001;4.247403889894486E-002;-5.695853382349014E-003;3.048981307074428E-003;
2.404666666666667E+009;1.807511597871780E-001;4.154415056109428E-002;-5.575257819145918E-003;3.217855701223016E-003;
2.404833333333334E+009;1.825429946184158E-001;4.034916311502457E-002;-5.529746413230896E-003;3.373318351805210E-003;
2.405000000000000E+009;1.838932335376740E-001;3.971143811941147E-002;-5.303282290697098E-003;3.279723692685366E-003;
2.405166666666667E+009;1.853548139333725E-001;3.891084715723991E-002;-5.140289664268494E-003;3.462565829977393E-003;
2.405333333333334E+009;1.868468821048737E-001;3.839107230305672E-002;-5.111623555421829E-003;3.689068602398038E-003;
2.405500000000000E+009;1.881385892629623E-001;3.788758441805840E-002;-4.866553470492363E-003;3.733178367838264E-003;
2.405666666666667E+009;1.893384456634522E-001;3.758566081523895E-002;-4.799183923751116E-003;3.792227013036609E-003;
2.405833333333334E+009;1.906022876501083E-001;3.737178817391396E-002;-4.764593672007322E-003;3.971208818256855E-003;
2.406000000000000E+009;1.916234642267227E-001;3.727927803993225E-002;-4.532182589173317E-003;4.006009083241224E-003;
2.406166666666667E+009;1.927019655704498E-001;3.692441433668137E-002;-4.366845823824406E-003;4.188188351690769E-003;
2.406333333333334E+009;1.935819089412689E-001;3.704573586583138E-002;-4.266104195266962E-003;4.339819308370352E-003;
2.406500000000000E+009;1.942125707864761E-001;3.722412884235382E-002;-4.237005021423101E-003;4.481178242713213E-003;
2.406666666666667E+009;1.948093026876450E-001;3.725304454565048E-002;-3.861938836053014E-003;4.412465263158083E-003;
2.406833333333334E+009;1.953555643558502E-001;3.726593777537346E-002;-3.988106269389391E-003;4.624716471880674E-003;
2.407000000000000E+009;1.956178098917007E-001;3.747563809156418E-002;-3.914600238204002E-003;4.711512010544539E-003;
2.407166666666667E+009;1.959173679351807E-001;3.729350864887238E-002;-3.750297939404845E-003;4.622163251042366E-003;
2.407333333333334E+009;1.958748698234558E-001;3.747237473726273E-002;-3.719590837135911E-003;4.716057330369949E-003;
2.407500000000000E+009;1.958335191011429E-001;3.756691515445709E-002;-3.555702045559883E-003;4.713668022304773E-003;
2.407666666666667E+009;1.958179622888565E-001;3.751284629106522E-002;-3.272856818512082E-003;4.860749933868647E-003;
2.407833333333334E+009;1.953095793724060E-001;3.744517639279366E-002;-3.380825044587255E-003;5.094142165035009E-003;
2.408000000000000E+009;1.952580660581589E-001;3.733655437827110E-002;-3.071449929848313E-003;4.942575469613075E-003;
2.408166666666667E+009;1.945640444755554E-001;3.718766942620277E-002;-3.078995039686561E-003;5.031823646277189E-003;
2.408333333333334E+009;1.941149681806564E-001;3.667415305972099E-002;-3.028919221833348E-003;5.150963552296162E-003;
2.408500000000000E+009;1.934229135513306E-001;3.638863563537598E-002;-2.741736825555563E-003;5.209340713918209E-003;
2.408666666666667E+009;1.927715390920639E-001;3.585652634501457E-002;-2.581655746325851E-003;5.271147005259991E-003;
2.408833333333334E+009;1.920017153024674E-001;3.509747236967087E-002;-2.442662836983800E-003;5.276743788272142E-003;
2.409000000000000E+009;1.910776644945145E-001;3.423039615154266E-002;-2.280772197991610E-003;5.283105652779341E-003;
2.409166666666667E+009;1.901249140501022E-001;3.348656371235848E-002;-2.197623718529940E-003;5.268560722470284E-003;
2.409333333333334E+009;1.891812086105347E-001;3.230091556906700E-002;-2.114373026415706E-003;5.471449811011553E-003;
2.409500000000000E+009;1.881643384695053E-001;3.103948757052422E-002;-2.098617376759648E-003;5.521588493138552E-003;
2.409666666666667E+009;1.870880573987961E-001;2.959167025983334E-002;-1.845878898166120E-003;5.513941403478384E-003;
2.409833333333334E+009;1.860163211822510E-001;2.826654724776745E-002;-1.782651292160153E-003;5.483610555529594E-003;
2.410000000000000E+009;1.851931959390640E-001;2.662966400384903E-002;-1.686570118181408E-003;5.549089517444372E-003;
2.410166666666667E+009;1.841048002243042E-001;2.489069662988186E-002;-1.432356191799045E-003;5.726194009184837E-003;
2.410333333333334E+009;1.831957697868347E-001;2.307422086596489E-002;-1.248627202585340E-003;5.838260985910893E-003;
2.410500000000000E+009;1.821476668119431E-001;2.105401083827019E-002;-1.098945969715715E-003;5.932158324867487E-003;
2.410666666666667E+009;1.812913268804550E-001;1.871611550450325E-002;-8.754792506806552E-004;5.989276338368654E-003;
2.410833333333334E+009;1.807294338941574E-001;1.668639667332172E-002;-6.824007141403854E-004;6.069573573768139E-003;
2.411000000000000E+009;1.798080205917358E-001;1.430004741996527E-002;-5.260925390757620E-004;5.885454360395670E-003;
2.411166666666667E+009;1.792429387569428E-001;1.222544535994530E-002;-3.089308156631887E-004;5.990705918520689E-003;
2.411333333333334E+009;1.786805838346481E-001;9.775629267096520E-003;-9.767196388565935E-006;6.005798932164908E-003;
2.411500000000000E+009;1.782207787036896E-001;7.317167241126299E-003;5.506685192813166E-005;5.891595967113972E-003;
2.411666666666667E+009;1.780474483966827E-001;4.955700598657131E-003;4.742892342619598E-004;5.814915057271719E-003;
2.411833333333334E+009;1.776575446128845E-001;2.756906673312187E-003;5.469183670356870E-004;5.937608424574137E-003;
2.412000000000000E+009;1.779039651155472E-001;-9.559810132486746E-005;7.293574744835496E-004;5.664908327162266E-003;
2.412166666666667E+009;1.779189854860306E-001;-2.227614866569638E-003;8.693014387972653E-004;5.545552354305983E-003;
2.412333333333334E+009;1.782318353652954E-001;-4.906376823782921E-003;1.078181201592088E-003;5.577152594923973E-003;
2.412500000000000E+009;1.786507666110992E-001;-7.278746459633112E-003;1.080181216821075E-003;5.269626155495644E-003;
2.412666666666667E+009;1.791840046644211E-001;-9.699863381683826E-003;1.229972462169826E-003;5.398155655711889E-003;
2.412833333333334E+009;1.799489259719849E-001;-1.221386436372995E-002;1.487117260694504E-003;5.196910817176104E-003;
2.413000000000000E+009;1.806189119815826E-001;-1.450741384178400E-002;1.375893712975085E-003;5.139937158674002E-003;
2.413166666666667E+009;1.815335154533386E-001;-1.667384803295136E-002;1.384774688631296E-003;5.085810553282499E-003;
2.413333333333334E+009;1.824511140584946E-001;-1.907149143517017E-002;1.627131947316229E-003;4.878578707575798E-003;
2.413500000000000E+009;1.834067106246948E-001;-2.120273746550083E-002;1.691931043751538E-003;5.019930191338062E-003;
2.413666666666667E+009;1.845779716968536E-001;-2.359820529818535E-002;1.696143532171845E-003;4.844217095524073E-003;
2.413833333333334E+009;1.857594996690750E-001;-2.561208233237267E-002;1.751579227857292E-003;4.977394826710224E-003;
2.414000000000000E+009;1.870041340589523E-001;-2.760245837271214E-002;1.911125727929175E-003;5.033599678426981E-003;
2.414166666666667E+009;1.880762130022049E-001;-2.932089008390904E-002;2.078160876408219E-003;4.935006611049175E-003;
2.414333333333334E+009;1.892487406730652E-001;-3.125808387994766E-002;2.206679433584213E-003;4.972826689481735E-003;
2.414500000000000E+009;1.903068274259567E-001;-3.268451616168022E-002;2.422350225970149E-003;5.003564991056919E-003;
2.414666666666667E+009;1.916935741901398E-001;-3.425489738583565E-002;2.570263342931867E-003;4.808580037206411E-003;
2.414833333333334E+009;1.929710954427719E-001;-3.571686148643494E-002;2.773732412606478E-003;4.782560281455517E-003;
2.415000000000000E+009;1.939458101987839E-001;-3.686124458909035E-002;2.959056757390499E-003;4.793216008692980E-003;
2.415166666666667E+009;1.953562647104263E-001;-3.805886581540108E-002;3.157771658152342E-003;4.685162100940943E-003;
2.415333333333334E+009;1.962842792272568E-001;-3.897602483630180E-002;3.228986170142889E-003;4.589729476720095E-003;
2.415500000000000E+009;1.975171715021133E-001;-3.963513672351837E-002;3.356050234287977E-003;4.374592099338770E-003;
2.415666666666667E+009;1.986099928617477E-001;-4.046044126152992E-002;3.385463263839483E-003;4.279588814824820E-003;
2.415833333333334E+009;1.993658244609833E-001;-4.106068983674049E-002;3.568266285583377E-003;4.172340035438538E-003;
2.416000000000000E+009;2.001286149024963E-001;-4.155690595507622E-002;3.798465942963958E-003;4.043033346533775E-003;
2.416166666666667E+009;2.008602917194367E-001;-4.221612960100174E-002;3.808031091466546E-003;3.966917283833027E-003;
2.416333333333334E+009;2.015302777290344E-001;-4.236093908548355E-002;3.776142140850425E-003;3.563381033018231E-003;
2.416500000000000E+009;2.020399123430252E-001;-4.265209659934044E-002;3.979011438786984E-003;3.572498681023717E-003;
2.416666666666667E+009;2.022830545902252E-001;-4.283569380640984E-002;4.097549244761467E-003;3.425210714340210E-003;
2.416833333333334E+009;2.023249268531799E-001;-4.282883182168007E-002;4.048329778015614E-003;3.286905819550157E-003;
2.417000000000000E+009;2.025476545095444E-001;-4.298077523708344E-002;4.242707975208759E-003;3.157125320285559E-003;
2.417166666666667E+009;2.022331804037094E-001;-4.281197115778923E-002;4.137829877436161E-003;3.127907169982791E-003;
2.417333333333334E+009;2.021310776472092E-001;-4.262990877032280E-002;4.113213624805212E-003;2.995753195136786E-003;
2.417500000000000E+009;2.018188536167145E-001;-4.267444089055061E-002;4.323691129684448E-003;2.839718945324421E-003;
2.417666666666667E+009;2.012274563312531E-001;-4.241225868463516E-002;4.491188563406467E-003;2.755326451733708E-003;
2.417833333333334E+009;2.008706182241440E-001;-4.204446077346802E-002;4.556168802082539E-003;2.685715910047293E-003;
2.418000000000000E+009;2.002622038125992E-001;-4.183185100555420E-002;4.680105019360781E-003;2.621631836518645E-003;
2.418166666666667E+009;1.994767636060715E-001;-4.174429923295975E-002;4.721713252365589E-003;2.519551897421479E-003;
2.418333333333334E+009;1.985324174165726E-001;-4.163211956620216E-002;4.951553419232369E-003;2.303893910720944E-003;
2.418500000000000E+009;1.974399387836456E-001;-4.158573970198631E-002;5.022998433560133E-003;2.227372024208307E-003;
2.418666666666667E+009;1.966488063335419E-001;-4.144749045372009E-002;4.876541905105114E-003;1.960379770025611E-003;
2.418833333333334E+009;1.953194290399551E-001;-4.155211523175240E-002;5.181443877518177E-003;1.742974622175098E-003;
2.419000000000000E+009;1.941524744033814E-001;-4.177608713507652E-002;5.282960832118988E-003;1.634979038499296E-003;
2.419166666666667E+009;1.926436126232147E-001;-4.213922843337059E-002;5.323161836713553E-003;1.373356441035867E-003;
2.419333333333334E+009;1.913962215185165E-001;-4.255823045969009E-002;5.374420899897814E-003;1.104020397178829E-003;
2.419500000000000E+009;1.897833347320557E-001;-4.306462407112122E-002;5.474456120282412E-003;8.074583602137864E-004;
2.419666666666667E+009;1.881976127624512E-001;-4.383372887969017E-002;5.404577590525150E-003;6.255155894905329E-004;
2.419833333333334E+009;1.867386400699616E-001;-4.454549774527550E-002;5.440467502921820E-003;4.126581479795277E-004;
2.420000000000000E+009;1.850946098566055E-001;-4.533338546752930E-002;5.257498938590288E-003;4.039102714159526E-005;
2.420166666666667E+009;1.834129393100739E-001;-4.636950045824051E-002;5.151422694325447E-003;-9.742892143549398E-005;
2.420333333333334E+009;1.820908188819885E-001;-4.742443561553955E-002;4.957204218953848E-003;-3.196850884705782E-004;
2.420500000000000E+009;1.803010106086731E-001;-4.887882620096207E-002;4.794048145413399E-003;-6.018336862325668E-004;
2.420666666666667E+009;1.786756217479706E-001;-4.981010034680367E-002;4.569268785417080E-003;-7.068387349136174E-004;
2.420833333333334E+009;1.770769208669663E-001;-5.160003527998924E-002;4.463667050004005E-003;-8.334146114066243E-004;
2.421000000000000E+009;1.756316721439362E-001;-5.324282497167587E-002;4.309165291488171E-003;-9.099364397116005E-004;
2.421166666666667E+009;1.741624772548676E-001;-5.480719357728958E-002;4.226978402584791E-003;-9.278753423132002E-004;
2.421333333333334E+009;1.723890453577042E-001;-5.639922618865967E-002;4.080412909388542E-003;-7.184662972576916E-004;
2.421500000000000E+009;1.710739284753799E-001;-5.833075940608978E-002;3.918496426194906E-003;-8.254133281297982E-004;
2.421666666666667E+009;1.699399203062058E-001;-6.015491485595703E-002;3.847948042675853E-003;-7.273251540027559E-004;
2.421833333333334E+009;1.688932329416275E-001;-6.217318028211594E-002;3.773892065510154E-003;-8.330166456289589E-004;
2.422000000000000E+009;1.677486747503281E-001;-6.408174335956574E-002;3.725574817508459E-003;-7.223658612929285E-004;
2.422166666666667E+009;1.668721884489059E-001;-6.611425429582596E-002;3.793021896854043E-003;-6.951469695195556E-004;
2.422333333333334E+009;1.657645553350449E-001;-6.820800900459290E-002;3.838956588879228E-003;-6.649482529610395E-004;
2.422500000000000E+009;1.650166660547257E-001;-7.027696818113327E-002;3.771222895011306E-003;-7.317039417102933E-004;
2.422666666666667E+009;1.643167585134506E-001;-7.239519059658051E-002;3.771825460717082E-003;-8.555442327633500E-004;
2.422833333333334E+009;1.640126109123230E-001;-7.443950325250626E-002;3.612835425883532E-003;-8.140720892697573E-004;
2.423000000000000E+009;1.634864360094070E-001;-7.639452815055847E-002;3.877681214362383E-003;-9.416248649358749E-004;
2.423166666666667E+009;1.630992889404297E-001;-7.852858304977417E-002;3.730843542143703E-003;-1.009131665341556E-003;
2.423333333333334E+009;1.628652065992355E-001;-8.058557659387589E-002;3.613522974774241E-003;-1.182337291538715E-003;
2.423500000000000E+009;1.627044230699539E-001;-8.215741068124771E-002;3.902394324541092E-003;-1.204525702632964E-003;
2.423666666666667E+009;1.627298742532730E-001;-8.437305688858032E-002;3.774418495595455E-003;-1.136422622948885E-003;
2.423833333333334E+009;1.626875251531601E-001;-8.597379177808762E-002;3.654321655631065E-003;-1.266233623027802E-003;
2.424000000000000E+009;1.628744900226593E-001;-8.781360089778900E-002;3.724308684468269E-003;-1.397428219206631E-003;
2.424166666666667E+009;1.628896743059158E-001;-8.934404700994492E-002;3.826071741059423E-003;-1.533489092253149E-003;
2.424333333333334E+009;1.633066236972809E-001;-9.099391102790833E-002;3.620675764977932E-003;-1.532488735392690E-003;
2.424500000000000E+009;1.635223180055618E-001;-9.271170943975449E-002;3.616777015849948E-003;-1.626900047995150E-003;
2.424666666666667E+009;1.639053225517273E-001;-9.394580870866776E-002;3.587329760193825E-003;-1.699369982816279E-003;
2.424833333333334E+009;1.643531620502472E-001;-9.529756009578705E-002;3.634102642536163E-003;-1.656532054767013E-003;
2.425000000000000E+009;1.647912412881851E-001;-9.649525582790375E-002;3.606235608458519E-003;-1.849866705015302E-003;
2.425166666666667E+009;1.651451140642166E-001;-9.766744077205658E-002;3.612434258684516E-003;-1.985248411074281E-003;
2.425333333333334E+009;1.654290854930878E-001;-9.838316589593887E-002;3.466727677732706E-003;-2.121459925547242E-003;
2.425500000000000E+009;1.659866869449616E-001;-9.948126971721649E-002;3.468294860795140E-003;-2.027345821261406E-003;
2.425666666666667E+009;1.663825511932373E-001;-1.001966968178749E-001;3.539829980581999E-003;-2.142888959497213E-003;
2.425833333333334E+009;1.667515337467194E-001;-1.010298952460289E-001;3.461569314822555E-003;-2.093864604830742E-003;
2.426000000000000E+009;1.672415584325790E-001;-1.014287769794464E-001;3.356428584083915E-003;-2.369277644902468E-003;
2.426166666666667E+009;1.675452589988709E-001;-1.019327268004417E-001;3.375405678525567E-003;-2.472449559718370E-003;
2.426333333333334E+009;1.676461100578308E-001;-1.025272458791733E-001;3.262346610426903E-003;-2.652388298884034E-003;
2.426500000000000E+009;1.682237684726715E-001;-1.026379317045212E-001;3.287345636636019E-003;-2.698919270187616E-003;
2.426666666666667E+009;1.683894991874695E-001;-1.029178053140640E-001;3.086179494857788E-003;-2.698379335924983E-003;
2.426833333333334E+009;1.685075461864471E-001;-1.032610237598419E-001;3.293936140835285E-003;-2.787884091958404E-003;
2.427000000000000E+009;1.686825603246689E-001;-1.034141257405281E-001;3.107765922322869E-003;-2.991033950820565E-003;
2.427166666666667E+009;1.687552928924561E-001;-1.034403964877129E-001;3.012270666658878E-003;-3.157089697197080E-003;
2.427333333333334E+009;1.686608046293259E-001;-1.036292687058449E-001;2.839953172951937E-003;-3.223714185878635E-003;
2.427500000000000E+009;1.683974862098694E-001;-1.038292050361633E-001;2.957382006570697E-003;-3.221652470529079E-003;
2.427666666666667E+009;1.681026071310043E-001;-1.039322316646576E-001;2.737015020102263E-003;-3.293940331786871E-003;
2.427833333333334E+009;1.676574498414993E-001;-1.039563044905663E-001;2.713043242692947E-003;-3.459466854110360E-003;
