# Version 1.00
#
freq[Hz];re:Trc1_S11;im:Trc1_S11;re:Trc2_S21;im:Trc2_S21;
2.400000000000000E+009;1.545431166887283E-001;1.067691743373871E-001;-8.055374026298523E-003;-2.561871893703938E-003;
2.400166666666667E+009;1.543721556663513E-001;1.043263301253319E-001;-8.073117583990097E-003;-1.985201379284263E-003;
2.400333333333334E+009;1.545446217060089E-001;1.021611317992210E-001;-8.161897771060467E-003;-1.745313638821244E-003;
2.400500000000000E+009;1.542867571115494E-001;9.939616173505783E-002;-8.039064705371857E-003;-1.127334428019822E-003;
2.400666666666667E+009;1.545488685369492E-001;9.702296555042267E-002;-8.221323601901531E-003;-7.728202617727220E-004;
2.400833333333334E+009;1.545804142951965E-001;9.417468309402466E-002;-7.918991148471832E-003;-5.128586781211197E-004;
2.401000000000000E+009;1.547553539276123E-001;9.106127172708511E-002;-7.628129329532385E-003;-7.286727486643940E-005;
2.401166666666667E+009;1.550265401601791E-001;8.838130533695221E-002;-7.508860435336828E-003;4.196163208689541E-004;
2.401333333333334E+009;1.552932411432266E-001;8.561722934246063E-002;-7.190283853560686E-003;4.545011906884611E-004;
2.401500000000000E+009;1.558708250522614E-001;8.256328105926514E-002;-7.053666748106480E-003;8.097197278402746E-004;
2.401666666666667E+009;1.561083942651749E-001;7.981954514980316E-002;-6.765400059521198E-003;8.335386519320309E-004;
2.401833333333334E+009;1.566010117530823E-001;7.708101719617844E-002;-6.651971489191055E-003;9.379212278872728E-004;
2.402000000000000E+009;1.575184613466263E-001;7.424578815698624E-002;-6.497568450868130E-003;1.111064222641289E-003;
2.402166666666667E+009;1.584360748529434E-001;7.178123295307159E-002;-6.251048762351275E-003;1.187610672786832E-003;
2.402333333333334E+009;1.593236774206162E-001;6.894653290510178E-002;-6.168195512145758E-003;1.183784916065633E-003;
2.402500000000000E+009;1.604254990816116E-001;6.624741107225418E-002;-6.124514620751143E-003;1.154431491158903E-003;
2.402666666666667E+009;1.616425663232803E-001;6.392087042331696E-002;-6.143329665064812E-003;1.088903169147670E-003;
2.402833333333334E+009;1.629889309406281E-001;6.137986853718758E-002;-6.065256427973509E-003;1.219191821292043E-003;
2.403000000000000E+009;1.643926799297333E-001;5.905529856681824E-002;-6.066130474209786E-003;1.204206724651158E-003;
2.403166666666667E+009;1.660262346267700E-001;5.701886862516403E-002;-5.982775241136551E-003;1.463843509554863E-003;
2.403333333333334E+009;1.673695147037506E-001;5.471281707286835E-002;-6.018048617988825E-003;1.527126762084663E-003;
2.403500000000000E+009;1.691510528326035E-001;5.261503159999847E-002;-6.210142746567726E-003;1.657157554291189E-003;
2.403666666666667E+009;1.710495054721832E-001;5.066658183932304E-002;-6.198853719979525E-003;1.976153813302517E-003;
2.403833333333334E+009;1.725779026746750E-001;4.879176616668701E-002;-6.012224592268467E-003;2.204308053478599E-003;
2.404000000000000E+009;1.742301881313324E-001;4.710622876882553E-002;-6.018456537276506E-003;2.387596759945154E-003;
2.404166666666667E+009;1.760559529066086E-001;4.543652385473251E-002;-5.951405037194490E-003;2.457388909533620E-003;
2.404333333333334E+009;1.777601093053818E-001;4.403815791010857E-002;-5.829924717545509E-003;2.862007124349475E-003;
2.404500000000000E+009;1.793150603771210E-001;4.259635880589485E-002;-5.793594755232334E-003;3.041202202439308E-003;
2.404666666666667E+009;1.809445768594742E-001;4.141987115144730E-002;-5.436344537883997E-003;3.131552366539836E-003;
2.404833333333334E+009;1.826139986515045E-001;4.036332294344902E-002;-5.378010217100382E-003;3.252123482525349E-003;
2.405000000000000E+009;1.838461607694626E-001;3.957648947834969E-002;-5.180392879992724E-003;3.387425560504198E-003;
2.405166666666667E+009;1.853225529193878E-001;3.900977224111557E-002;-5.224728956818581E-003;3.477083286270499E-003;
2.405333333333334E+009;1.867483556270599E-001;3.856473043560982E-002;-5.034688860177994E-003;3.629832994192839E-003;
2.405500000000000E+009;1.881724894046783E-001;3.796751797199249E-002;-4.953275900334120E-003;3.780927276238799E-003;
2.405666666666667E+009;1.894617527723312E-001;3.766438364982605E-002;-4.601592198014259E-003;3.907420206815004E-003;
2.405833333333334E+009;1.906143724918366E-001;3.745282813906670E-002;-4.490956198424101E-003;3.909698687493801E-003;
2.406000000000000E+009;1.916744261980057E-001;3.715640306472778E-002;-4.560911562293768E-003;4.013206809759140E-003;
2.406166666666667E+009;1.926050037145615E-001;3.709559887647629E-002;-4.585120361298323E-003;4.105370957404375E-003;
2.406333333333334E+009;1.935485154390335E-001;3.725780546665192E-002;-4.326196853071451E-003;4.277779720723629E-003;
2.406500000000000E+009;1.943298727273941E-001;3.721819445490837E-002;-4.179749637842178E-003;4.233432468026876E-003;
2.406666666666667E+009;1.948983222246170E-001;3.725754469633102E-002;-4.099536221474409E-003;4.375683143734932E-003;
2.406833333333334E+009;1.953756511211395E-001;3.732016682624817E-002;-3.997809253633022E-003;4.570499062538147E-003;
2.407000000000000E+009;1.956120580434799E-001;3.754952549934387E-002;-3.724135458469391E-003;4.579026252031326E-003;
2.407166666666667E+009;1.959746330976486E-001;3.729916363954544E-002;-3.718428546562791E-003;4.765457008033991E-003;
2.407333333333334E+009;1.959075331687927E-001;3.757436200976372E-002;-3.721098648384213E-003;4.662124440073967E-003;
2.407500000000000E+009;1.957064419984818E-001;3.769251704216003E-002;-3.370440565049648E-003;4.821123555302620E-003;
2.407666666666667E+009;1.958174705505371E-001;3.763282299041748E-002;-3.327154088765383E-003;4.899812396615744E-003;
2.407833333333334E+009;1.952262222766876E-001;3.759236633777618E-002;-3.235451877117157E-003;4.939184058457613E-003;
2.408000000000000E+009;1.952396929264069E-001;3.761149570345879E-002;-3.269786015152931E-003;5.085352342575789E-003;
2.408166666666667E+009;1.945981532335281E-001;3.721885383129120E-002;-2.904542488977313E-003;5.155328661203384E-003;
2.408333333333334E+009;1.941327899694443E-001;3.664611279964447E-002;-2.916961675509810E-003;5.058345384895802E-003;
2.408500000000000E+009;1.934324651956558E-001;3.648184612393379E-002;-2.652610652148724E-003;5.169873125851154E-003;
2.408666666666667E+009;1.927998661994934E-001;3.589408472180367E-002;-2.579992637038231E-003;5.172357428818941E-003;
2.408833333333334E+009;1.921125799417496E-001;3.535982966423035E-002;-2.492459723725915E-003;5.265076644718647E-003;
2.409000000000000E+009;1.910947561264038E-001;3.439276292920113E-002;-2.272807061672211E-003;5.435930564999580E-003;
2.409166666666667E+009;1.900828778743744E-001;3.348438069224358E-002;-2.297247061505914E-003;5.428313743323088E-003;
2.409333333333334E+009;1.893604546785355E-001;3.251095488667488E-002;-2.120693912729621E-003;5.418124143034220E-003;
2.409500000000000E+009;1.881033480167389E-001;3.130680322647095E-002;-1.916798064485192E-003;5.473184399306774E-003;
2.409666666666667E+009;1.872107088565826E-001;2.981464751064777E-002;-1.725455746054649E-003;5.465990863740444E-003;
2.409833333333334E+009;1.860456764698029E-001;2.847392112016678E-002;-1.749545219354332E-003;5.614310968667269E-003;
2.410000000000000E+009;1.850970089435577E-001;2.669551596045494E-002;-1.499844016507268E-003;5.700266920030117E-003;
2.410166666666667E+009;1.842336058616638E-001;2.491900511085987E-002;-1.387887750752270E-003;5.734146106988192E-003;
2.410333333333334E+009;1.832930296659470E-001;2.317500859498978E-002;-1.186773995868862E-003;5.729434546083212E-003;
2.410500000000000E+009;1.821924895048142E-001;2.117729932069778E-002;-1.201021019369364E-003;6.043501663953066E-003;
2.410666666666667E+009;1.813680380582809E-001;1.887898892164230E-002;-9.500947198830545E-004;6.038710474967957E-003;
2.410833333333334E+009;1.806526035070419E-001;1.660560816526413E-002;-5.952856154181063E-004;6.039777304977179E-003;
2.411000000000000E+009;1.799174994230270E-001;1.440909691154957E-002;-3.995461447630078E-004;6.038386840373278E-003;
2.411166666666667E+009;1.792185902595520E-001;1.225310005247593E-002;-2.609757357276976E-004;6.070250179618597E-003;
2.411333333333334E+009;1.787219494581223E-001;9.808435104787350E-003;-1.634628715692088E-004;5.981778260320425E-003;
2.411500000000000E+009;1.783542931079865E-001;7.335179951041937E-003;3.267964348196983E-004;5.873216316103935E-003;
2.411666666666667E+009;1.781228929758072E-001;5.133960396051407E-003;3.126166120637208E-004;5.754146724939346E-003;
2.411833333333334E+009;1.777939200401306E-001;2.702692057937384E-003;5.490922485478222E-004;5.642422474920750E-003;
2.412000000000000E+009;1.779676526784897E-001;9.911580491461791E-006;6.481346208602190E-004;5.632137879729271E-003;
2.412166666666667E+009;1.779021322727203E-001;-2.416129456833005E-003;8.989803609438241E-004;5.574191454797983E-003;
2.412333333333334E+009;1.781337708234787E-001;-4.891741089522839E-003;1.008158433251083E-003;5.500779021531344E-003;
2.412500000000000E+009;1.786461025476456E-001;-7.039128802716732E-003;1.066492986865342E-003;5.354241468012333E-003;
2.412666666666667E+009;1.792583018541336E-001;-9.922984056174755E-003;1.239779870957136E-003;5.167089868336916E-003;
2.412833333333334E+009;1.799486428499222E-001;-1.210265234112740E-002;1.377925626002252E-003;5.126262549310923E-003;
2.413000000000000E+009;1.807574629783630E-001;-1.439220923930407E-002;1.417424180544913E-003;4.972104914486408E-003;
2.413166666666667E+009;1.814758181571960E-001;-1.660773903131485E-002;1.547279534861445E-003;4.933413118124008E-003;
2.413333333333334E+009;1.825146675109863E-001;-1.906933635473251E-002;1.479337690398097E-003;4.956843797117472E-003;
2.413500000000000E+009;1.833914965391159E-001;-2.123216539621353E-002;1.621017465367913E-003;4.892336670309305E-003;
2.413666666666667E+009;1.847563982009888E-001;-2.354886382818222E-002;1.674552564509213E-003;4.938959609717131E-003;
2.413833333333334E+009;1.856892704963684E-001;-2.553883939981461E-002;1.662331516854465E-003;4.867903888225555E-003;
2.414000000000000E+009;1.868363022804260E-001;-2.740972116589546E-002;2.044710796326399E-003;4.887015093117952E-003;
2.414166666666667E+009;1.882500797510147E-001;-2.922897972166538E-002;2.005578484386206E-003;4.936696961522102E-003;
2.414333333333334E+009;1.893268674612045E-001;-3.111153095960617E-002;2.301601460203528E-003;4.941322375088930E-003;
2.414500000000000E+009;1.906541436910629E-001;-3.259548172354698E-002;2.358599565923214E-003;4.795812536031008E-003;
2.414666666666667E+009;1.916752010583878E-001;-3.416289016604424E-002;2.519185654819012E-003;4.877182189375162E-003;
2.414833333333334E+009;1.927974075078964E-001;-3.555925190448761E-002;2.795278094708920E-003;4.769847728312016E-003;
2.415000000000000E+009;1.940190941095352E-001;-3.696008026599884E-002;2.898166887462139E-003;4.629599396139383E-003;
2.415166666666667E+009;1.952720135450363E-001;-3.792431578040123E-002;3.083965973928571E-003;4.547329619526863E-003;
2.415333333333334E+009;1.965345144271851E-001;-3.881222009658814E-002;3.004251513630152E-003;4.378113895654678E-003;
2.415500000000000E+009;1.975697129964829E-001;-3.958310186862946E-002;3.279406577348709E-003;4.202721174806356E-003;
2.415666666666667E+009;1.985966414213181E-001;-4.048843681812286E-002;3.401954891160131E-003;4.264644347131252E-003;
2.415833333333334E+009;1.994891762733460E-001;-4.109562560915947E-002;3.654287895187736E-003;4.108450375497341E-003;
2.416000000000000E+009;2.001812905073166E-001;-4.165280237793922E-002;3.728111973032355E-003;3.989839460700750E-003;
2.416166666666667E+009;2.009041905403137E-001;-4.204875975847244E-002;3.729546908289194E-003;3.844974562525749E-003;
2.416333333333334E+009;2.016028612852097E-001;-4.232812300324440E-002;3.898231778293848E-003;3.636312438175082E-003;
2.416500000000000E+009;2.018336206674576E-001;-4.259323701262474E-002;3.933694213628769E-003;3.602217184379697E-003;
2.416666666666667E+009;2.024366706609726E-001;-4.303337633609772E-002;4.057267680764198E-003;3.576521296054125E-003;
2.416833333333334E+009;2.024099826812744E-001;-4.287361726164818E-002;4.148945212364197E-003;3.230811096727848E-003;
2.417000000000000E+009;2.026794254779816E-001;-4.290416091680527E-002;4.115274176001549E-003;3.201400861144066E-003;
2.417166666666667E+009;2.023073136806488E-001;-4.285193234682083E-002;4.327612929046154E-003;3.085017902776599E-003;
2.417333333333334E+009;2.021891027688980E-001;-4.256857931613922E-002;4.424818791449070E-003;2.960299141705036E-003;
2.417500000000000E+009;2.019209265708923E-001;-4.261221736669540E-002;4.265364725142717E-003;2.855722792446613E-003;
2.417666666666667E+009;2.014428377151489E-001;-4.234992712736130E-002;4.562695976346731E-003;2.802458126097918E-003;
2.417833333333334E+009;2.008701562881470E-001;-4.209174588322640E-002;4.573906771838665E-003;2.607273170724511E-003;
2.418000000000000E+009;2.002835869789124E-001;-4.183991625905037E-002;4.718489479273558E-003;2.584087196737528E-003;
2.418166666666667E+009;1.995109468698502E-001;-4.179081320762634E-002;4.597338382154703E-003;2.462830627337098E-003;
2.418333333333334E+009;1.986240148544312E-001;-4.153835773468018E-002;4.993921611458063E-003;2.369790570810437E-003;
2.418500000000000E+009;1.975915431976318E-001;-4.167300462722778E-002;4.937216173857451E-003;2.125929342582822E-003;
2.418666666666667E+009;1.967232227325440E-001;-4.157912731170654E-002;4.975460935384035E-003;1.914578606374562E-003;
2.418833333333334E+009;1.953881829977036E-001;-4.155967757105827E-002;5.121389869600534E-003;1.812098198570311E-003;
2.419000000000000E+009;1.940972954034805E-001;-4.187886416912079E-002;5.210239905864000E-003;1.649365643970668E-003;
2.419166666666667E+009;1.928672045469284E-001;-4.225929826498032E-002;5.228282883763313E-003;1.506088301539421E-003;
2.419333333333334E+009;1.914052516222000E-001;-4.257809370756149E-002;5.384524352848530E-003;1.082121161743999E-003;
2.419500000000000E+009;1.899543702602387E-001;-4.309144243597984E-002;5.418904591351748E-003;8.062337292358279E-004;
2.419666666666667E+009;1.883194744586945E-001;-4.386880993843079E-002;5.304859485477209E-003;6.120058242231607E-004;
2.419833333333334E+009;1.866214275360107E-001;-4.455956071615219E-002;5.245934706181288E-003;4.077251942362636E-004;
2.420000000000000E+009;1.852297484874725E-001;-4.546006396412849E-002;5.117154680192471E-003;1.325671473750845E-005;
2.420166666666667E+009;1.835305541753769E-001;-4.638324677944183E-002;4.952010698616505E-003;-1.154839173977962E-005;
2.420333333333334E+009;1.820203065872192E-001;-4.757355898618698E-002;4.799442831426859E-003;-3.336454392410815E-004;
2.420500000000000E+009;1.802800595760346E-001;-4.892089962959290E-002;4.618042148649693E-003;-4.653545329347253E-004;
2.420666666666667E+009;1.786861568689346E-001;-5.007512867450714E-002;4.564475733786821E-003;-5.922995042055845E-004;
2.420833333333334E+009;1.771105229854584E-001;-5.170230939984322E-002;4.294352605938911E-003;-6.988769746385515E-004;
2.421000000000000E+009;1.757072508335114E-001;-5.314227938652039E-002;4.154298920184374E-003;-8.177332347258925E-004;
2.421166666666667E+009;1.743315458297730E-001;-5.496881157159805E-002;4.037227481603622E-003;-7.487913826480508E-004;
2.421333333333334E+009;1.726898699998856E-001;-5.650445446372032E-002;3.942532464861870E-003;-7.028635009191930E-004;
2.421500000000000E+009;1.712128371000290E-001;-5.842250585556030E-002;3.767952090129256E-003;-7.209112518467009E-004;
2.421666666666667E+009;1.699999421834946E-001;-6.032964214682579E-002;3.550475230440497E-003;-8.249938837252557E-004;
2.421833333333334E+009;1.688579469919205E-001;-6.237527728080750E-002;3.623686963692308E-003;-6.507430225610733E-004;
2.422000000000000E+009;1.678378432989121E-001;-6.406731903553009E-002;3.708267584443092E-003;-8.228351944126189E-004;
2.422166666666667E+009;1.668744087219238E-001;-6.628919392824173E-002;3.700057277455926E-003;-8.393998723477125E-004;
2.422333333333334E+009;1.658833622932434E-001;-6.830815970897675E-002;3.692651633173227E-003;-7.124455296434462E-004;
2.422500000000000E+009;1.650659888982773E-001;-7.024959474802017E-002;3.807729342952371E-003;-6.643891101703048E-004;
2.422666666666667E+009;1.643216013908386E-001;-7.226046174764633E-002;3.797039622440934E-003;-8.539711707271636E-004;
2.422833333333334E+009;1.639888733625412E-001;-7.442384958267212E-002;3.766763256862760E-003;-9.261169470846653E-004;
2.423000000000000E+009;1.634520590305328E-001;-7.659126073122025E-002;3.848962485790253E-003;-7.664370932616293E-004;
2.423166666666667E+009;1.631162911653519E-001;-7.845307141542435E-002;3.733064746484160E-003;-9.721201495267451E-004;
2.423333333333334E+009;1.627912819385529E-001;-8.048134297132492E-002;3.751659300178289E-003;-1.162957283668220E-003;
2.423500000000000E+009;1.627720594406128E-001;-8.220233023166657E-002;3.701994195580483E-003;-1.170034869574010E-003;
2.423666666666667E+009;1.628855019807816E-001;-8.428622037172318E-002;3.837669268250465E-003;-1.313417800702155E-003;
2.423833333333334E+009;1.627497822046280E-001;-8.599171787500382E-002;3.738397266715765E-003;-1.366027281619608E-003;
2.424000000000000E+009;1.629365235567093E-001;-8.790761232376099E-002;3.797157900407910E-003;-1.448073307983577E-003;
2.424166666666667E+009;1.630543470382690E-001;-8.936959505081177E-002;3.619313007220626E-003;-1.601978088729084E-003;
2.424333333333334E+009;1.632850915193558E-001;-9.101703763008118E-002;3.623375203460455E-003;-1.637952751480043E-003;
2.424500000000000E+009;1.635296195745468E-001;-9.278435260057449E-002;3.503180574625731E-003;-1.699431217275560E-003;
2.424666666666667E+009;1.638790518045425E-001;-9.405133128166199E-002;3.664751304313541E-003;-1.721658627502620E-003;
2.424833333333334E+009;1.644289046525955E-001;-9.544643759727478E-002;3.641790477558971E-003;-1.871570246294141E-003;
2.425000000000000E+009;1.648005098104477E-001;-9.660498052835465E-002;3.564497921615839E-003;-1.671295613050461E-003;
2.425166666666667E+009;1.652000993490219E-001;-9.772557765245438E-002;3.487317590042949E-003;-1.926391967572272E-003;
2.425333333333334E+009;1.655294597148895E-001;-9.859137237071991E-002;3.446371993049979E-003;-1.993142068386078E-003;
2.425500000000000E+009;1.660274416208267E-001;-9.972773492336273E-002;3.396386746317148E-003;-2.157023409381509E-003;
2.425666666666667E+009;1.664218455553055E-001;-1.002649962902069E-001;3.408299526199698E-003;-2.188162179663777E-003;
2.425833333333334E+009;1.667720824480057E-001;-1.010827124118805E-001;3.297251882031560E-003;-2.365957247093320E-003;
2.426000000000000E+009;1.672009527683258E-001;-1.015187725424767E-001;3.438244806602597E-003;-2.367291599512100E-003;
2.426166666666667E+009;1.675972193479538E-001;-1.020201146602631E-001;3.273435635492206E-003;-2.419727621600032E-003;
2.426333333333334E+009;1.677780300378799E-001;-1.024378985166550E-001;3.320790128782392E-003;-2.476076595485210E-003;
2.426500000000000E+009;1.680923402309418E-001;-1.027165651321411E-001;3.172727534547448E-003;-2.701153745874763E-003;
2.426666666666667E+009;1.684119105339050E-001;-1.030841469764710E-001;3.194626653566957E-003;-2.681909361854196E-003;
2.426833333333334E+009;1.685803234577179E-001;-1.033562943339348E-001;3.143167588859797E-003;-2.766157733276486E-003;
2.427000000000000E+009;1.686152368783951E-001;-1.034107655286789E-001;3.120124805718660E-003;-2.921138191595674E-003;
2.427166666666667E+009;1.686119884252548E-001;-1.035510078072548E-001;3.032291540876031E-003;-2.974335802718997E-003;
2.427333333333334E+009;1.685239374637604E-001;-1.037298366427422E-001;3.018834162503481E-003;-3.031251020729542E-003;
2.427500000000000E+009;1.683941036462784E-001;-1.038874760270119E-001;2.844853559508920E-003;-3.220578422769904E-003;
2.427666666666667E+009;1.679468005895615E-001;-1.038943454623222E-001;2.871716627851129E-003;-3.242753446102142E-003;
2.427833333333334E+009;1.676553636789322E-001;-1.040413454174995E-001;2.678064629435539E-003;-3.543448168784380E-003;
