# Version 1.00
#
freq[Hz];re:Trc1_S11;im:Trc1_S11;re:Trc2_S21;im:Trc2_S21;
2.400000000000000E+009;1.548284739255905E-001;1.067609935998917E-001;-8.010415360331535E-003;-2.476371126249433E-003;
2.400166666666667E+009;1.546774804592133E-001;1.043321713805199E-001;-8.034183643758297E-003;-2.080944599583745E-003;
2.400333333333334E+009;1.546649783849716E-001;1.020527184009552E-001;-8.200056850910187E-003;-1.757933874614537E-003;
2.400500000000000E+009;1.548088043928146E-001;9.943355619907379E-002;-8.107651025056839E-003;-1.122941495850682E-003;
2.400666666666667E+009;1.546990424394608E-001;9.685270488262177E-002;-7.941401563584805E-003;-8.252540137618780E-004;
2.400833333333334E+009;1.548598408699036E-001;9.398634731769562E-002;-7.862557657063007E-003;-4.084756365045905E-004;
2.401000000000000E+009;1.550684720277786E-001;9.124758094549179E-002;-7.863796316087246E-003;7.321070006582886E-005;
2.401166666666667E+009;1.551438421010971E-001;8.829277008771896E-002;-7.611619308590889E-003;3.272727772127837E-004;
2.401333333333334E+009;1.554144471883774E-001;8.556962013244629E-002;-7.259469479322434E-003;3.755429934244603E-004;
2.401500000000000E+009;1.559852212667465E-001;8.266426622867584E-002;-7.051920983940363E-003;5.951374187134206E-004;
2.401666666666667E+009;1.563064306974411E-001;7.967507094144821E-002;-6.916007027029991E-003;8.661788888275623E-004;
2.401833333333334E+009;1.569248139858246E-001;7.694479078054428E-002;-6.577637046575546E-003;8.823681273497641E-004;
2.402000000000000E+009;1.578144133090973E-001;7.411617785692215E-002;-6.312075536698103E-003;1.024098135530949E-003;
2.402166666666667E+009;1.585669070482254E-001;7.160380482673645E-002;-6.335013546049595E-003;1.036509987898171E-003;
2.402333333333334E+009;1.594122797250748E-001;6.870534271001816E-002;-6.221642252057791E-003;1.052352599799633E-003;
2.402500000000000E+009;1.606516689062119E-001;6.611164659261704E-002;-6.047978997230530E-003;1.093335915356875E-003;
2.402666666666667E+009;1.614380627870560E-001;6.377179920673370E-002;-6.086607929319143E-003;1.135675469413400E-003;
2.402833333333334E+009;1.630518734455109E-001;6.124673411250114E-002;-6.023706868290901E-003;1.289416337385774E-003;
2.403000000000000E+009;1.643264144659042E-001;5.893704667687416E-002;-6.077329628169537E-003;1.290361513383687E-003;
2.403166666666667E+009;1.661815941333771E-001;5.665617063641548E-002;-6.101724691689014E-003;1.352207735180855E-003;
2.403333333333334E+009;1.675701290369034E-001;5.444973707199097E-002;-6.165768019855022E-003;1.589070889167488E-003;
2.403500000000000E+009;1.692993044853210E-001;5.251577869057655E-002;-6.122157908976078E-003;1.734412740916014E-003;
2.403666666666667E+009;1.709593981504440E-001;5.055467784404755E-002;-6.157580763101578E-003;1.814044895581901E-003;
2.403833333333334E+009;1.726898998022080E-001;4.867751896381378E-002;-6.273616105318070E-003;2.072189701721072E-003;
2.404000000000000E+009;1.741421967744827E-001;4.691553860902786E-002;-5.978050641715527E-003;2.142453566193581E-003;
2.404166666666667E+009;1.759174019098282E-001;4.540457949042320E-002;-5.993764847517014E-003;2.440033480525017E-003;
2.404333333333334E+009;1.775857657194138E-001;4.382973909378052E-002;-5.860517732799053E-003;2.852806588634849E-003;
2.404500000000000E+009;1.791702359914780E-001;4.246039688587189E-002;-5.593071226030588E-003;2.983230398967862E-003;
2.404666666666667E+009;1.808450371026993E-001;4.137973487377167E-002;-5.715940147638321E-003;2.966953674331307E-003;
2.404833333333334E+009;1.825211048126221E-001;4.026225209236145E-002;-5.593954119831324E-003;3.227957990020514E-003;
2.405000000000000E+009;1.838961094617844E-001;3.935933113098145E-002;-5.342855583876371E-003;3.447378752753139E-003;
2.405166666666667E+009;1.853302717208862E-001;3.888152539730072E-002;-5.104687064886093E-003;3.420577617362142E-003;
2.405333333333334E+009;1.867522001266480E-001;3.833936527371407E-002;-5.104700103402138E-003;3.774198470637202E-003;
2.405500000000000E+009;1.881150603294373E-001;3.792010992765427E-002;-4.897543694823980E-003;3.674297360703349E-003;
2.405666666666667E+009;1.893159151077271E-001;3.748556226491928E-002;-4.856442101299763E-003;3.732428187504411E-003;
2.405833333333334E+009;1.907239705324173E-001;3.722511231899262E-002;-4.708549939095974E-003;3.829278051853180E-003;
2.406000000000000E+009;1.917894333600998E-001;3.713845089077950E-002;-4.647511523216963E-003;4.068958107382059E-003;
2.406166666666667E+009;1.926808804273605E-001;3.691885620355606E-002;-4.461893346160650E-003;4.245988093316555E-003;
2.406333333333334E+009;1.935028284788132E-001;3.709807619452477E-002;-4.306658171117306E-003;4.425618797540665E-003;
2.406500000000000E+009;1.942814737558365E-001;3.704289346933365E-002;-4.141145385801792E-003;4.360529594123364E-003;
2.406666666666667E+009;1.948994696140289E-001;3.710946068167687E-002;-4.065386485308409E-003;4.376285243779421E-003;
2.406833333333334E+009;1.954176425933838E-001;3.701356798410416E-002;-3.970272373408079E-003;4.481937270611525E-003;
2.407000000000000E+009;1.956032514572144E-001;3.729303553700447E-002;-3.760182531550527E-003;4.541580099612474E-003;
2.407166666666667E+009;1.960092484951019E-001;3.716512396931648E-002;-3.727956209331751E-003;4.621159285306931E-003;
2.407333333333334E+009;1.958124041557312E-001;3.744864836335182E-002;-3.518403507769108E-003;4.756947513669729E-003;
2.407500000000000E+009;1.958302408456802E-001;3.749350458383560E-002;-3.467322094365954E-003;4.779701121151447E-003;
2.407666666666667E+009;1.959051191806793E-001;3.744720295071602E-002;-3.341170260682702E-003;4.941196646541357E-003;
2.407833333333334E+009;1.953685432672501E-001;3.740395978093147E-002;-3.119459841400385E-003;4.866917151957750E-003;
2.408000000000000E+009;1.951888203620911E-001;3.723035380244255E-002;-3.074552863836289E-003;4.980206955224276E-003;
2.408166666666667E+009;1.945221275091171E-001;3.698274120688438E-002;-2.966421656310558E-003;5.052816588431597E-003;
2.408333333333334E+009;1.941511631011963E-001;3.644616529345512E-002;-2.940746722742915E-003;5.050494801253080E-003;
2.408500000000000E+009;1.933529675006867E-001;3.631121665239334E-002;-2.746852347627282E-003;5.242103245109320E-003;
2.408666666666667E+009;1.927376836538315E-001;3.592913970351219E-002;-2.598324790596962E-003;5.213037598878145E-003;
2.408833333333334E+009;1.920420527458191E-001;3.502509370446205E-002;-2.443937817588449E-003;5.277762189507484E-003;
2.409000000000000E+009;1.910444349050522E-001;3.411163762211800E-002;-2.264610724523664E-003;5.293866153806448E-003;
2.409166666666667E+009;1.902363151311874E-001;3.335947170853615E-002;-2.096107695251703E-003;5.400053225457668E-003;
2.409333333333334E+009;1.892331093549728E-001;3.229339793324471E-002;-1.940279966220260E-003;5.492875352501869E-003;
2.409500000000000E+009;1.880480647087097E-001;3.102206066250801E-002;-1.943140523508191E-003;5.550097674131393E-003;
2.409666666666667E+009;1.871627569198608E-001;2.967173792421818E-002;-1.944634481333196E-003;5.383672192692757E-003;
2.409833333333334E+009;1.859776973724365E-001;2.820770628750324E-002;-1.684882096014917E-003;5.618381313979626E-003;
2.410000000000000E+009;1.850778311491013E-001;2.662047743797302E-002;-1.446057111024857E-003;5.734299775213003E-003;
2.410166666666667E+009;1.840084940195084E-001;2.477408573031426E-002;-1.478811143897474E-003;5.711761303246021E-003;
2.410333333333334E+009;1.831725537776947E-001;2.304326742887497E-002;-1.145335729233921E-003;5.774781107902527E-003;
2.410500000000000E+009;1.819829195737839E-001;2.108422294259071E-002;-1.080074347555637E-003;5.971688311547041E-003;
2.410666666666667E+009;1.812344193458557E-001;1.885628141462803E-002;-9.822502033784986E-004;5.871335044503212E-003;
2.410833333333334E+009;1.806022822856903E-001;1.660997048020363E-002;-7.230029441416264E-004;6.195093039423227E-003;
2.411000000000000E+009;1.799460351467133E-001;1.433596387505531E-002;-5.112677463330329E-004;5.965272430330515E-003;
2.411166666666667E+009;1.791101992130280E-001;1.232936698943377E-002;-2.817701897583902E-004;5.894030909985304E-003;
2.411333333333334E+009;1.787149161100388E-001;9.675818495452404E-003;6.854736420791596E-005;5.906622856855393E-003;
2.411500000000000E+009;1.781718581914902E-001;7.360561285167933E-003;1.933692838065326E-004;5.988045595586300E-003;
2.411666666666667E+009;1.779254823923111E-001;5.020190961658955E-003;2.979092823807150E-004;5.834020208567381E-003;
2.411833333333334E+009;1.776678413152695E-001;2.845791168510914E-003;5.661353352479637E-004;5.791604518890381E-003;
2.412000000000000E+009;1.778060644865036E-001;-4.479888957575895E-006;7.056099129840732E-004;5.805236287415028E-003;
2.412166666666667E+009;1.780131459236145E-001;-2.301535801962018E-003;8.243080810643733E-004;5.540873389691114E-003;
2.412333333333334E+009;1.783033609390259E-001;-4.886129405349493E-003;9.345041471533477E-004;5.444613285362721E-003;
2.412500000000000E+009;1.784864962100983E-001;-7.351760752499104E-003;1.093842205591500E-003;5.447915755212307E-003;
2.412666666666667E+009;1.791394054889679E-001;-9.872935712337494E-003;1.318350201472640E-003;5.163857713341713E-003;
2.412833333333334E+009;1.797393113374710E-001;-1.228308025747538E-002;1.533393748104572E-003;5.136928055435419E-003;
2.413000000000000E+009;1.806213557720184E-001;-1.451944187283516E-002;1.291209482587874E-003;5.129300989210606E-003;
2.413166666666667E+009;1.813508421182632E-001;-1.659464091062546E-002;1.491310074925423E-003;5.144496913999319E-003;
2.413333333333334E+009;1.824260503053665E-001;-1.916605047881603E-002;1.560188946314156E-003;5.054802168160677E-003;
2.413500000000000E+009;1.834014058113098E-001;-2.143221534788609E-002;1.604813965968788E-003;5.025585647672415E-003;
2.413666666666667E+009;1.845598965883255E-001;-2.344405092298985E-002;1.690348610281944E-003;4.989248234778643E-003;
2.413833333333334E+009;1.856836378574371E-001;-2.546318247914314E-002;1.740908832289279E-003;5.119727458804846E-003;
2.414000000000000E+009;1.867707967758179E-001;-2.750856988132000E-002;1.864989986643195E-003;4.810293670743704E-003;
2.414166666666667E+009;1.881371587514877E-001;-2.932363189756870E-002;2.077002543956041E-003;4.964367486536503E-003;
2.414333333333334E+009;1.891107559204102E-001;-3.137312456965447E-002;2.306392416357994E-003;4.897042643278837E-003;
2.414500000000000E+009;1.905246227979660E-001;-3.274360671639442E-002;2.380337566137314E-003;5.045468453317881E-003;
2.414666666666667E+009;1.916780471801758E-001;-3.418863192200661E-002;2.529981778934598E-003;4.834740422666073E-003;
2.414833333333334E+009;1.927838027477264E-001;-3.558855131268501E-002;2.769235521554947E-003;4.708246793597937E-003;
2.415000000000000E+009;1.938506066799164E-001;-3.700131550431252E-002;2.887803828343749E-003;4.733089357614517E-003;
2.415166666666667E+009;1.951883137226105E-001;-3.804444149136543E-002;3.063354408368468E-003;4.526162985712290E-003;
2.415333333333334E+009;1.963715255260468E-001;-3.910038247704506E-002;3.012089757248759E-003;4.379037767648697E-003;
2.415500000000000E+009;1.974833607673645E-001;-3.961196169257164E-002;3.341663861647248E-003;4.326514434069395E-003;
2.415666666666667E+009;1.985167860984802E-001;-4.051604121923447E-002;3.395687090232968E-003;4.255583509802818E-003;
2.415833333333334E+009;1.992965042591095E-001;-4.102344810962677E-002;3.495380049571395E-003;4.169703926891089E-003;
2.416000000000000E+009;2.000863701105118E-001;-4.166130721569061E-002;3.719086060300469E-003;4.048563074320555E-003;
2.416166666666667E+009;2.007557153701782E-001;-4.223713651299477E-002;3.754511242732406E-003;3.806882072240114E-003;
2.416333333333334E+009;2.014634907245636E-001;-4.222964122891426E-002;3.739249659702182E-003;3.791519906371832E-003;
2.416500000000000E+009;2.018786221742630E-001;-4.257444664835930E-002;4.082170780748129E-003;3.560110228136182E-003;
2.416666666666667E+009;2.022672146558762E-001;-4.285438731312752E-002;4.107214510440826E-003;3.562714904546738E-003;
2.416833333333334E+009;2.023906707763672E-001;-4.287798330187798E-002;4.041641019284725E-003;3.349732141941786E-003;
2.417000000000000E+009;2.025430798530579E-001;-4.295698925852776E-002;4.186531994491816E-003;3.156998194754124E-003;
2.417166666666667E+009;2.022975385189056E-001;-4.284896329045296E-002;4.269439727067947E-003;3.064099233597517E-003;
2.417333333333334E+009;2.019752115011215E-001;-4.250901564955711E-002;4.433208145201206E-003;3.009386826306582E-003;
2.417500000000000E+009;2.017392665147781E-001;-4.261969774961472E-002;4.453178495168686E-003;2.851172816008329E-003;
2.417666666666667E+009;2.012325078248978E-001;-4.235907644033432E-002;4.429686814546585E-003;2.823470626026392E-003;
2.417833333333334E+009;2.008572965860367E-001;-4.211500659584999E-002;4.527344368398190E-003;2.776984823867679E-003;
2.418000000000000E+009;2.002211362123489E-001;-4.183023795485497E-002;4.606897477060556E-003;2.554911887273192E-003;
2.418166666666667E+009;1.994066089391708E-001;-4.168458655476570E-002;4.754094406962395E-003;2.406380837783217E-003;
2.418333333333334E+009;1.984612643718720E-001;-4.163210466504097E-002;4.785057157278061E-003;2.380042104050517E-003;
2.418500000000000E+009;1.974154114723206E-001;-4.160076379776001E-002;5.030764732509852E-003;2.218284411355853E-003;
2.418666666666667E+009;1.965712606906891E-001;-4.149175062775612E-002;5.098326597362757E-003;1.946480479091406E-003;
2.418833333333334E+009;1.951819211244583E-001;-4.160953685641289E-002;5.307962652295828E-003;1.925785676576197E-003;
2.419000000000000E+009;1.940678358078003E-001;-4.191812127828598E-002;5.278302356600761E-003;1.557260984554887E-003;
2.419166666666667E+009;1.927494555711746E-001;-4.205029085278511E-002;5.333346314728260E-003;1.362823648378253E-003;
2.419333333333334E+009;1.912867277860642E-001;-4.255248606204987E-002;5.506787449121475E-003;1.140153384767473E-003;
2.419500000000000E+009;1.898946017026901E-001;-4.303969070315361E-002;5.435398779809475E-003;7.882444770075381E-004;
2.419666666666667E+009;1.882137507200241E-001;-4.385542869567871E-002;5.508747417479754E-003;5.335952155292034E-004;
2.419833333333334E+009;1.866623163223267E-001;-4.450890049338341E-002;5.387537181377411E-003;3.694151528179646E-004;
2.420000000000000E+009;1.851671636104584E-001;-4.535587504506111E-002;5.361452233046293E-003;8.096187957562506E-005;
2.420166666666667E+009;1.835927516222000E-001;-4.620946198701859E-002;5.301625933498144E-003;-1.362729526590556E-004;
2.420333333333334E+009;1.818842887878418E-001;-4.758301004767418E-002;5.064600612968206E-003;-3.829385386779904E-004;
2.420500000000000E+009;1.803372651338577E-001;-4.889486730098724E-002;4.838780499994755E-003;-6.022916059009731E-004;
2.420666666666667E+009;1.786328703165054E-001;-4.992255195975304E-002;4.676501732319593E-003;-6.643305532634258E-004;
2.420833333333334E+009;1.769811660051346E-001;-5.162880197167397E-002;4.436442628502846E-003;-8.109889458864927E-004;
2.421000000000000E+009;1.756444722414017E-001;-5.302759259939194E-002;4.278453998267651E-003;-7.172276964411140E-004;
2.421166666666667E+009;1.741145551204681E-001;-5.486800521612167E-002;4.091252572834492E-003;-8.705601212568581E-004;
2.421333333333334E+009;1.725730001926422E-001;-5.643872171640396E-002;4.009260330349207E-003;-1.026870450004935E-003;
2.421500000000000E+009;1.712533980607987E-001;-5.834253504872322E-002;3.830032655969262E-003;-8.792990120127797E-004;
2.421666666666667E+009;1.699878573417664E-001;-6.024005264043808E-002;3.851173911243677E-003;-8.514251676388085E-004;
2.421833333333334E+009;1.689127683639526E-001;-6.219957023859024E-002;3.686375450342894E-003;-8.183299214579165E-004;
2.422000000000000E+009;1.676076501607895E-001;-6.396231800317764E-002;3.637477755546570E-003;-6.415164680220187E-004;
2.422166666666667E+009;1.668001860380173E-001;-6.624363362789154E-002;3.578757401555777E-003;-6.798464455641806E-004;
2.422333333333334E+009;1.657647490501404E-001;-6.833656877279282E-002;3.763956716284156E-003;-7.169323507696390E-004;
2.422500000000000E+009;1.649597734212875E-001;-7.030034065246582E-002;3.834648989140987E-003;-7.041200296953321E-004;
2.422666666666667E+009;1.642453074455261E-001;-7.235679775476456E-002;3.804215695708990E-003;-6.457641720771790E-004;
2.422833333333334E+009;1.638140827417374E-001;-7.439436018466950E-002;3.823698032647371E-003;-8.013161132112145E-004;
2.423000000000000E+009;1.633805781602860E-001;-7.637603580951691E-002;3.832890186458826E-003;-9.059910662472248E-004;
2.423166666666667E+009;1.631806343793869E-001;-7.841860502958298E-002;3.760052612051368E-003;-8.238308946602047E-004;
2.423333333333334E+009;1.629327386617661E-001;-8.046648651361466E-002;3.748694201931357E-003;-1.157179707661271E-003;
2.423500000000000E+009;1.627184748649597E-001;-8.233774453401566E-002;3.915712703019381E-003;-1.060212147422135E-003;
2.423666666666667E+009;1.628775894641876E-001;-8.430801331996918E-002;3.770521841943264E-003;-1.222951337695122E-003;
2.423833333333334E+009;1.627664715051651E-001;-8.594616502523422E-002;3.913880325853825E-003;-1.266575884073973E-003;
2.424000000000000E+009;1.628171652555466E-001;-8.775904029607773E-002;3.718015970662236E-003;-1.430948846973479E-003;
2.424166666666667E+009;1.630192548036575E-001;-8.934832364320755E-002;3.854113398119807E-003;-1.468280330300331E-003;
2.424333333333334E+009;1.632491946220398E-001;-9.092062711715698E-002;3.785899374634028E-003;-1.591260544955730E-003;
2.424500000000000E+009;1.636871695518494E-001;-9.269609302282333E-002;3.655369393527508E-003;-1.618964481167495E-003;
2.424666666666667E+009;1.638170331716538E-001;-9.407132118940353E-002;3.646476892754436E-003;-1.799688441678882E-003;
2.424833333333334E+009;1.644563227891922E-001;-9.522386640310288E-002;3.499719547107816E-003;-1.768900547176600E-003;
2.425000000000000E+009;1.648414134979248E-001;-9.649926424026489E-002;3.498616395518184E-003;-1.899620401673019E-003;
2.425166666666667E+009;1.652227640151978E-001;-9.761896729469299E-002;3.471660660579801E-003;-1.892520813271403E-003;
2.425333333333334E+009;1.654369086027145E-001;-9.860049188137054E-002;3.486332017928362E-003;-2.027407055720687E-003;
2.425500000000000E+009;1.659397333860397E-001;-9.950850903987885E-002;3.447592724114656E-003;-2.018684986978769E-003;
2.425666666666667E+009;1.662852019071579E-001;-1.001532301306725E-001;3.331733169034123E-003;-2.290083095431328E-003;
2.425833333333334E+009;1.666962653398514E-001;-1.008938774466515E-001;3.361615585163236E-003;-2.269537886604667E-003;
2.426000000000000E+009;1.671559214591980E-001;-1.013348177075386E-001;3.117832820862532E-003;-2.330910880118609E-003;
2.426166666666667E+009;1.675639003515244E-001;-1.020291447639465E-001;3.264057449996471E-003;-2.376235090196133E-003;
2.426333333333334E+009;1.677162349224091E-001;-1.023969948291779E-001;3.243813989683986E-003;-2.450162079185247E-003;
2.426500000000000E+009;1.681192815303803E-001;-1.026630625128746E-001;3.201578510925174E-003;-2.596792532131076E-003;
2.426666666666667E+009;1.683934181928635E-001;-1.028945595026016E-001;3.176661208271980E-003;-2.722739707678556E-003;
2.426833333333334E+009;1.686206609010696E-001;-1.032335162162781E-001;3.018692601472139E-003;-2.913609845563769E-003;
2.427000000000000E+009;1.687016636133194E-001;-1.033719331026077E-001;2.857087412849069E-003;-2.806429052725434E-003;
2.427166666666667E+009;1.686986386775971E-001;-1.035023257136345E-001;2.918025245890021E-003;-3.110039979219437E-003;
2.427333333333334E+009;1.685424000024796E-001;-1.036964878439903E-001;2.984969876706600E-003;-2.991687273606658E-003;
2.427500000000000E+009;1.683510988950729E-001;-1.038239970803261E-001;2.671404508873820E-003;-3.211258444935083E-003;
2.427666666666667E+009;1.680381745100021E-001;-1.038472875952721E-001;2.671305555850267E-003;-3.323239274322987E-003;
2.427833333333334E+009;1.676853597164154E-001;-1.039758697152138E-001;2.653196454048157E-003;-3.389604622498155E-003;
