# Version 1.00
#
freq[Hz];re:Trc1_S11;im:Trc1_S11;re:Trc2_S21;im:Trc2_S21;
2.400000000000000E+009;1.638308316469193E-001;5.200853571295738E-002;2.223238581791520E-003;4.814233165234327E-003;
2.400166666666667E+009;1.637248694896698E-001;5.056581273674965E-002;2.337556332349777E-003;4.810054786503315E-003;
2.400333333333334E+009;1.636287569999695E-001;4.866603761911392E-002;2.478375332430005E-003;4.905223380774260E-003;
2.400500000000000E+009;1.636690646409988E-001;4.688167944550514E-002;2.623948501423001E-003;4.910044372081757E-003;
2.400666666666667E+009;1.635131090879440E-001;4.496612027287483E-002;2.840564586222172E-003;4.883633460849524E-003;
2.400833333333334E+009;1.635619997978210E-001;4.315228015184403E-002;3.061431460082531E-003;4.859031643718481E-003;
2.401000000000000E+009;1.636194288730621E-001;4.106252267956734E-002;3.210989525541663E-003;4.880073014646769E-003;
2.401166666666667E+009;1.637356579303742E-001;3.921986743807793E-002;3.548898501321673E-003;4.976850003004074E-003;
2.401333333333334E+009;1.636911630630493E-001;3.724122419953346E-002;3.754879347980022E-003;5.007053725421429E-003;
2.401500000000000E+009;1.640275120735169E-001;3.526415303349495E-002;3.985812887549400E-003;4.852294921875000E-003;
2.401666666666667E+009;1.642217934131622E-001;3.333866223692894E-002;4.284051712602377E-003;4.801418632268906E-003;
2.401833333333334E+009;1.643385738134384E-001;3.142233565449715E-002;4.457323346287012E-003;4.740110598504543E-003;
2.402000000000000E+009;1.645279079675674E-001;2.951439097523689E-002;4.732939880341291E-003;4.560570698231459E-003;
2.402166666666667E+009;1.649355739355087E-001;2.744193375110626E-002;5.075882188975811E-003;4.412814974784851E-003;
2.402333333333334E+009;1.654510051012039E-001;2.580581046640873E-002;5.403151270002127E-003;4.213299136608839E-003;
2.402500000000000E+009;1.659444868564606E-001;2.404885366559029E-002;5.655082874000073E-003;4.120817407965660E-003;
2.402666666666667E+009;1.663210242986679E-001;2.204089425504208E-002;5.832095630466938E-003;3.848727792501450E-003;
2.402833333333334E+009;1.669782847166061E-001;2.043746784329414E-002;6.217419635504484E-003;3.510583424940705E-003;
2.403000000000000E+009;1.674428582191467E-001;1.881934516131878E-002;6.509214639663696E-003;3.367340657860041E-003;
2.403166666666667E+009;1.681936532258987E-001;1.713769510388374E-002;6.640600040555000E-003;2.978576347231865E-003;
2.403333333333334E+009;1.687107086181641E-001;1.554914098232985E-002;6.863186601549387E-003;2.691916888579726E-003;
2.403500000000000E+009;1.692903935909271E-001;1.425457093864679E-002;7.185434922575951E-003;2.385003492236137E-003;
2.403666666666667E+009;1.701045185327530E-001;1.271498389542103E-002;7.133391685783863E-003;2.074592048302293E-003;
2.403833333333334E+009;1.708739101886749E-001;1.140765752643347E-002;7.241713348776102E-003;1.713488600216806E-003;
2.404000000000000E+009;1.715213805437088E-001;1.013406831771135E-002;7.333839777857065E-003;1.283789752051234E-003;
2.404166666666667E+009;1.723025292158127E-001;9.008531458675861E-003;7.973889820277691E-003;6.470919470302761E-004;
2.404333333333334E+009;1.729739308357239E-001;7.730294484645128E-003;7.938683032989502E-003;6.888984353281558E-004;
2.404500000000000E+009;1.737511605024338E-001;6.617120467126370E-003;7.136925123631954E-003;1.697532934485935E-005;
2.404666666666667E+009;1.742500215768814E-001;5.751853343099356E-003;8.115870878100395E-003;3.186352842021734E-004;
2.404833333333334E+009;1.750877946615219E-001;4.876518622040749E-003;7.466676644980907E-003;-4.299964348319918E-004;
2.405000000000000E+009;1.757584065198898E-001;4.087145905941725E-003;7.666315883398056E-003;-9.816427482292056E-004;
2.405166666666667E+009;1.765145808458328E-001;3.281596116721630E-003;7.309705950319767E-003;-1.567565836012363E-003;
2.405333333333334E+009;1.770639717578888E-001;2.367890439927578E-003;7.002270780503750E-003;-1.419173320755363E-003;
2.405500000000000E+009;1.776059418916702E-001;2.073782728984952E-003;6.993840914219618E-003;-1.857456983998418E-003;
2.405666666666667E+009;1.780155152082443E-001;1.664597308263183E-003;7.697015069425106E-003;-2.234727609902620E-003;
2.405833333333334E+009;1.784710437059403E-001;1.199493650346994E-003;7.314458955079317E-003;-2.813715254887939E-003;
2.406000000000000E+009;1.788006871938705E-001;3.990072291344404E-004;6.638630293309689E-003;-2.342529594898224E-003;
2.406166666666667E+009;1.792548000812531E-001;3.246785490773618E-004;6.660596001893282E-003;-3.393414895981550E-003;
2.406333333333334E+009;1.798196136951447E-001;-1.972380705410615E-004;6.129235960543156E-003;-3.496050601825118E-003;
2.406500000000000E+009;1.799873858690262E-001;-4.643751017283648E-004;5.858935881406069E-003;-4.161784425377846E-003;
2.406666666666667E+009;1.799928694963455E-001;-8.338050101883709E-004;5.962793715298176E-003;-4.136828240007162E-003;
2.406833333333334E+009;1.802616715431213E-001;-1.159427803941071E-003;5.673666484653950E-003;-4.661635030061007E-003;
2.407000000000000E+009;1.803596764802933E-001;-1.386844087392092E-003;5.222573410719633E-003;-4.647906403988600E-003;
2.407166666666667E+009;1.803625524044037E-001;-1.785890897735953E-003;5.265021231025457E-003;-4.568036179989576E-003;
2.407333333333334E+009;1.801701039075851E-001;-2.413879614323378E-003;4.851168021559715E-003;-4.894142504781485E-003;
2.407500000000000E+009;1.799751222133637E-001;-2.649539383128285E-003;4.700442310422659E-003;-4.881929140537977E-003;
2.407666666666667E+009;1.798266917467117E-001;-3.041283227503300E-003;4.484267905354500E-003;-5.117204971611500E-003;
2.407833333333334E+009;1.793730407953262E-001;-3.764789085835218E-003;4.060327541083098E-003;-5.202236585319042E-003;
2.408000000000000E+009;1.790509819984436E-001;-4.247235599905253E-003;4.099725745618343E-003;-5.412225145846605E-003;
2.408166666666667E+009;1.785609722137451E-001;-4.754578694701195E-003;3.642010502517223E-003;-5.512224510312080E-003;
2.408333333333334E+009;1.784059703350067E-001;-5.403320305049419E-003;3.381962189450860E-003;-5.648854654282332E-003;
2.408500000000000E+009;1.776703149080277E-001;-6.197766866534948E-003;3.248557681217790E-003;-5.717952735722065E-003;
2.408666666666667E+009;1.771886348724365E-001;-6.814381573349237E-003;3.051734995096922E-003;-5.677342880517244E-003;
2.408833333333334E+009;1.764925420284271E-001;-8.043814450502396E-003;2.807392738759518E-003;-5.723799113184214E-003;
2.409000000000000E+009;1.757355034351349E-001;-8.675461634993553E-003;2.434527967125177E-003;-5.858687683939934E-003;
2.409166666666667E+009;1.751985400915146E-001;-9.813070297241211E-003;2.163472119718790E-003;-5.841548088937998E-003;
2.409333333333334E+009;1.745749562978745E-001;-1.086126733571291E-002;1.933204592205584E-003;-5.945689976215363E-003;
2.409500000000000E+009;1.739350259304047E-001;-1.229335088282824E-002;1.741316867992282E-003;-5.840487312525511E-003;
2.409666666666667E+009;1.730616837739945E-001;-1.349396165460348E-002;1.470618997700512E-003;-5.793625488877296E-003;
2.409833333333334E+009;1.723315715789795E-001;-1.467094197869301E-002;1.214239746332169E-003;-5.713105667382479E-003;
2.410000000000000E+009;1.717161685228348E-001;-1.592571102082729E-002;1.123543013818562E-003;-5.856009665876627E-003;
2.410166666666667E+009;1.709891408681870E-001;-1.750219985842705E-002;7.264044252224267E-004;-5.850780755281448E-003;
2.410333333333334E+009;1.702786535024643E-001;-1.902883686125279E-002;6.096957949921489E-004;-5.676272325217724E-003;
2.410500000000000E+009;1.697665005922318E-001;-2.062119171023369E-002;4.468991537578404E-004;-5.675506312400103E-003;
2.410666666666667E+009;1.691798120737076E-001;-2.238218858838081E-002;2.857324725482613E-004;-5.601009353995323E-003;
2.410833333333334E+009;1.686712950468063E-001;-2.397810667753220E-002;1.110253506340087E-004;-5.516126751899719E-003;
2.411000000000000E+009;1.681985855102539E-001;-2.565735392272472E-002;-1.297582057304680E-004;-5.631451029330492E-003;
2.411166666666667E+009;1.676638871431351E-001;-2.745128050446510E-002;-1.578290830366314E-004;-5.414484068751335E-003;
2.411333333333334E+009;1.673566102981567E-001;-2.933842316269875E-002;-3.208842535968870E-004;-5.280754528939724E-003;
2.411500000000000E+009;1.667831391096115E-001;-3.126636147499085E-002;-5.230897804722190E-004;-5.290105007588863E-003;
2.411666666666667E+009;1.667102277278900E-001;-3.318469971418381E-002;-7.276046089828014E-004;-5.309944041073322E-003;
2.411833333333334E+009;1.665026545524597E-001;-3.496631979942322E-002;-7.428528624586761E-004;-5.219759419560432E-003;
2.412000000000000E+009;1.664137393236160E-001;-3.700643032789230E-002;-8.860679226927459E-004;-5.071423482149839E-003;
2.412166666666667E+009;1.661527156829834E-001;-3.889906406402588E-002;-1.088500721380115E-003;-5.218302365392447E-003;
2.412333333333334E+009;1.664179265499115E-001;-4.062874242663384E-002;-1.159493462182581E-003;-4.971671383827925E-003;
2.412500000000000E+009;1.664367914199829E-001;-4.257177188992500E-002;-1.345202559605241E-003;-5.101423710584641E-003;
2.412666666666667E+009;1.665412783622742E-001;-4.464839771389961E-002;-1.451402320526540E-003;-5.118497181683779E-003;
2.412833333333334E+009;1.666347235441208E-001;-4.639213159680367E-002;-1.697239000350237E-003;-4.924414213746786E-003;
2.413000000000000E+009;1.669573336839676E-001;-4.813680797815323E-002;-1.737867831252515E-003;-4.878264386206865E-003;
2.413166666666667E+009;1.672495454549789E-001;-4.990720376372337E-002;-2.005479065701366E-003;-4.809070378541946E-003;
2.413333333333334E+009;1.674532443284988E-001;-5.164345353841782E-002;-2.174138557165861E-003;-4.893781617283821E-003;
2.413500000000000E+009;1.679143458604813E-001;-5.325884371995926E-002;-2.564516384154558E-003;-4.822429269552231E-003;
2.413666666666667E+009;1.682499200105667E-001;-5.491121858358383E-002;-2.612744690850377E-003;-4.638724029064179E-003;
2.413833333333334E+009;1.684426367282867E-001;-5.645027756690979E-002;-2.817562781274319E-003;-4.594445228576660E-003;
2.414000000000000E+009;1.688192039728165E-001;-5.801016464829445E-002;-2.876757644116879E-003;-4.543354734778404E-003;
2.414166666666667E+009;1.692569106817246E-001;-5.912947282195091E-002;-3.119583241641522E-003;-4.315298050642014E-003;
2.414333333333334E+009;1.695895791053772E-001;-6.052992865443230E-002;-3.287791972979903E-003;-4.141851328313351E-003;
2.414500000000000E+009;1.702546030282974E-001;-6.172116473317146E-002;-3.345849225297570E-003;-4.225913900882006E-003;
2.414666666666667E+009;1.707223951816559E-001;-6.274782866239548E-002;-3.627920057624579E-003;-4.012066405266523E-003;
2.414833333333334E+009;1.709349453449249E-001;-6.387149542570114E-002;-3.704197937622666E-003;-3.713357262313366E-003;
2.415000000000000E+009;1.712914854288101E-001;-6.460922956466675E-002;-4.035370424389839E-003;-3.618384245783091E-003;
2.415166666666667E+009;1.717152595520020E-001;-6.555158644914627E-002;-3.994277678430080E-003;-3.349424107000232E-003;
2.415333333333334E+009;1.722403615713120E-001;-6.640254706144333E-002;-4.164859652519226E-003;-3.387456992641091E-003;
2.415500000000000E+009;1.723566353321075E-001;-6.694784015417099E-002;-4.354262724518776E-003;-2.971670590341091E-003;
2.415666666666667E+009;1.726273447275162E-001;-6.759227067232132E-002;-4.488165024667978E-003;-2.810871461406350E-003;
2.415833333333334E+009;1.729082763195038E-001;-6.818723678588867E-002;-4.411737434566021E-003;-2.721673343330622E-003;
2.416000000000000E+009;1.729496419429779E-001;-6.866344064474106E-002;-4.654061049222946E-003;-2.543751616030932E-003;
2.416166666666667E+009;1.731844693422318E-001;-6.904086470603943E-002;-4.653491079807282E-003;-2.297519706189632E-003;
2.416333333333334E+009;1.731213927268982E-001;-6.923089176416397E-002;-4.856169689446688E-003;-1.987288007512689E-003;
2.416500000000000E+009;1.730005592107773E-001;-6.968785822391510E-002;-5.062377080321312E-003;-1.763680600561202E-003;
2.416666666666667E+009;1.727776676416397E-001;-7.006207108497620E-002;-4.851547535508871E-003;-1.611214014701545E-003;
2.416833333333334E+009;1.727124750614166E-001;-7.030864059925079E-002;-4.839841276407242E-003;-1.279503223486245E-003;
2.417000000000000E+009;1.722796708345413E-001;-7.051482796669006E-002;-4.766428843140602E-003;-1.063448144122958E-003;
2.417166666666667E+009;1.718922406435013E-001;-7.064940035343170E-002;-4.822123330086470E-003;-7.434709114022553E-004;
2.417333333333334E+009;1.714262962341309E-001;-7.079248875379562E-002;-4.853563383221626E-003;-6.767726154066622E-004;
2.417500000000000E+009;1.708067655563355E-001;-7.115739583969116E-002;-4.802687093615532E-003;-5.410631420090795E-004;
2.417666666666667E+009;1.703827679157257E-001;-7.129128277301788E-002;-4.679220262914896E-003;-3.718861262314022E-004;
2.417833333333334E+009;1.695448160171509E-001;-7.144122570753098E-002;-4.734294489026070E-003;-1.176553341792896E-004;
2.418000000000000E+009;1.686389148235321E-001;-7.183448970317841E-002;-4.685748834162951E-003;1.297046546824276E-004;
2.418166666666667E+009;1.677478104829788E-001;-7.197564840316773E-002;-4.667825531214476E-003;3.376632230356336E-004;
2.418333333333334E+009;1.671288162469864E-001;-7.242500782012940E-002;-4.490296356379986E-003;4.180081887170672E-004;
2.418500000000000E+009;1.660987436771393E-001;-7.272601127624512E-002;-4.461074713617563E-003;6.912164390087128E-004;
2.418666666666667E+009;1.649990379810333E-001;-7.315369695425034E-002;-4.333452787250280E-003;7.715031970292330E-004;
2.418833333333334E+009;1.638794988393784E-001;-7.350344955921173E-002;-4.255463369190693E-003;1.042403629980981E-003;
2.419000000000000E+009;1.625377833843231E-001;-7.395427674055100E-002;-4.306829534471035E-003;1.012177905067802E-003;
2.419166666666667E+009;1.614682376384735E-001;-7.474165409803391E-002;-4.156794399023056E-003;1.296127680689097E-003;
2.419333333333334E+009;1.601321250200272E-001;-7.506775856018066E-002;-4.127112217247486E-003;1.268486026674509E-003;
2.419500000000000E+009;1.591399312019348E-001;-7.589022815227509E-002;-3.878148738294840E-003;1.571626402437687E-003;
2.419666666666667E+009;1.580207049846649E-001;-7.679350674152374E-002;-3.928137011826038E-003;1.665571937337518E-003;
2.419833333333334E+009;1.566029042005539E-001;-7.750663906335831E-002;-3.826218424364924E-003;1.892003929242492E-003;
2.420000000000000E+009;1.554507464170456E-001;-7.865383476018906E-002;-3.679824061691761E-003;1.776252989657223E-003;
2.420166666666667E+009;1.542933583259583E-001;-7.942783087491989E-002;-3.471166361123323E-003;1.954239327460527E-003;
2.420333333333334E+009;1.531523317098618E-001;-8.052265644073486E-002;-3.557995194569230E-003;2.048298250883818E-003;
2.420500000000000E+009;1.520269662141800E-001;-8.151986449956894E-002;-3.364225151017308E-003;2.237527398392558E-003;
2.420666666666667E+009;1.510363817214966E-001;-8.273749798536301E-002;-3.203904256224632E-003;2.198511967435479E-003;
2.420833333333334E+009;1.499026864767075E-001;-8.415018022060394E-002;-3.050411120057106E-003;2.526937052607536E-003;
2.421000000000000E+009;1.487947106361389E-001;-8.547755330801010E-002;-2.909831702709198E-003;2.660328755155206E-003;
2.421166666666667E+009;1.480188965797424E-001;-8.696021139621735E-002;-2.902305452153087E-003;2.645820146426559E-003;
2.421333333333334E+009;1.471118479967117E-001;-8.855116367340088E-002;-2.562852576375008E-003;2.825011964887381E-003;
2.421500000000000E+009;1.463107168674469E-001;-9.000819921493530E-002;-2.502431860193610E-003;2.874139463528991E-003;
2.421666666666667E+009;1.458003371953964E-001;-9.149271994829178E-002;-2.358037047088146E-003;2.910054754465818E-003;
2.421833333333334E+009;1.451621502637863E-001;-9.313305467367172E-002;-2.157941460609436E-003;2.993406960740686E-003;
2.422000000000000E+009;1.444139182567596E-001;-9.480892121791840E-002;-1.894855871796608E-003;3.025431418791413E-003;
2.422166666666667E+009;1.441040486097336E-001;-9.669520705938339E-002;-1.626646262593567E-003;3.005826147273183E-003;
2.422333333333334E+009;1.437813490629196E-001;-9.828911721706390E-002;-1.634912448935211E-003;3.000128781422973E-003;
2.422500000000000E+009;1.433965563774109E-001;-9.978828579187393E-002;-1.520663732662797E-003;2.885773312300444E-003;
2.422666666666667E+009;1.431410759687424E-001;-1.016708612442017E-001;-1.259444514289498E-003;3.036491805687547E-003;
2.422833333333334E+009;1.430278420448303E-001;-1.034317985177040E-001;-1.039209659211338E-003;2.988816471770406E-003;
2.423000000000000E+009;1.428898274898529E-001;-1.051472127437592E-001;-7.799324230290949E-004;2.820940921083093E-003;
2.423166666666667E+009;1.430238783359528E-001;-1.068240702152252E-001;-9.234327590093017E-004;2.933472162112594E-003;
2.423333333333334E+009;1.431542485952377E-001;-1.082221120595932E-001;-6.911109667271376E-004;2.816129243001342E-003;
2.423500000000000E+009;1.432959735393524E-001;-1.099563091993332E-001;-7.752028177492321E-004;2.624916611239314E-003;
2.423666666666667E+009;1.433210223913193E-001;-1.116846576333046E-001;-5.540252896025777E-004;2.878750907257199E-003;
2.423833333333334E+009;1.436385810375214E-001;-1.132111698389053E-001;-2.827262505888939E-004;2.703832462430000E-003;
2.424000000000000E+009;1.437797844409943E-001;-1.145906448364258E-001;-3.890251391567290E-004;2.515259664505720E-003;
2.424166666666667E+009;1.441779285669327E-001;-1.158552989363670E-001;-2.629759837873280E-004;2.585182432085276E-003;
2.424333333333334E+009;1.446040421724320E-001;-1.171550676226616E-001;-3.060661838389933E-004;2.588442992419004E-003;
2.424500000000000E+009;1.448464095592499E-001;-1.185466572642326E-001;-1.307194324908778E-004;2.379649085924029E-003;
2.424666666666667E+009;1.453989893198013E-001;-1.193891093134880E-001;-2.980229146487545E-005;2.258975058794022E-003;
2.424833333333334E+009;1.455750465393066E-001;-1.205939427018166E-001;3.974680294049904E-005;2.435832750052214E-003;
2.425000000000000E+009;1.460537016391754E-001;-1.216296404600143E-001;-1.748470822349191E-005;2.363840350881219E-003;
2.425166666666667E+009;1.462842524051666E-001;-1.224781423807144E-001;8.410186273977161E-005;2.296213991940022E-003;
2.425333333333334E+009;1.466351300477982E-001;-1.233562007546425E-001;-1.712411722110119E-005;2.262666588649154E-003;
2.425500000000000E+009;1.469979137182236E-001;-1.242275536060333E-001;7.190352334873751E-005;2.204978372901678E-003;
2.425666666666667E+009;1.471802443265915E-001;-1.248022764921188E-001;8.802989032119513E-005;2.142551820725203E-003;
2.425833333333334E+009;1.474845558404923E-001;-1.253479719161987E-001;2.218390000052750E-004;2.178670605644584E-003;
2.426000000000000E+009;1.476079672574997E-001;-1.259519904851914E-001;3.912639804184437E-004;2.104990417137742E-003;
2.426166666666667E+009;1.478851735591888E-001;-1.263287365436554E-001;3.316160582471639E-004;2.067325171083212E-003;
2.426333333333334E+009;1.477968692779541E-001;-1.267247945070267E-001;3.021342272404581E-004;2.145874546840787E-003;
2.426500000000000E+009;1.478756964206696E-001;-1.267868280410767E-001;3.954487619921565E-004;2.096296520903707E-003;
2.426666666666667E+009;1.479124128818512E-001;-1.268640011548996E-001;4.979996592737734E-004;1.981717534363270E-003;
2.426833333333334E+009;1.477197706699371E-001;-1.271230727434158E-001;4.938375786878169E-004;2.154164714738727E-003;
2.427000000000000E+009;1.474945694208145E-001;-1.274041533470154E-001;5.986228352412581E-004;2.049715025350452E-003;
2.427166666666667E+009;1.471897661685944E-001;-1.272229254245758E-001;6.004303577356041E-004;1.975173363462091E-003;
2.427333333333334E+009;1.467568576335907E-001;-1.273196637630463E-001;7.969229482114315E-004;1.922213123179972E-003;
2.427500000000000E+009;1.464090198278427E-001;-1.272997409105301E-001;8.253753185272217E-004;1.896304078400135E-003;
2.427666666666667E+009;1.456646621227264E-001;-1.273072808980942E-001;8.823981042951345E-004;1.826290623284876E-003;
