# Version 1.00
#
freq[Hz];re:Trc1_S11;im:Trc1_S11;re:Trc2_S21;im:Trc2_S21;
2.400000000000000E+009;1.637187153100967E-001;5.180617421865463E-002;2.152010332792997E-003;4.905821289867163E-003;
2.400166666666667E+009;1.636651903390884E-001;5.051033571362495E-002;2.333052223548293E-003;4.906281828880310E-003;
2.400333333333334E+009;1.636118292808533E-001;4.856726899743080E-002;2.449168357998133E-003;4.966989625245333E-003;
2.400500000000000E+009;1.634842902421951E-001;4.678009077906609E-002;2.541839843615890E-003;4.794070962816477E-003;
2.400666666666667E+009;1.635450422763825E-001;4.488850384950638E-002;2.626968780532479E-003;4.939674399793148E-003;
2.400833333333334E+009;1.636835783720017E-001;4.328423365950584E-002;2.916892524808645E-003;4.965636413544416E-003;
2.401000000000000E+009;1.637759357690811E-001;4.123394191265106E-002;3.131759120151401E-003;4.985097330063582E-003;
2.401166666666667E+009;1.637524068355560E-001;3.932029753923416E-002;3.404069924727082E-003;4.938388243317604E-003;
2.401333333333334E+009;1.637471914291382E-001;3.721840679645538E-002;3.703437978401780E-003;4.858483560383320E-003;
2.401500000000000E+009;1.641250252723694E-001;3.519692644476891E-002;3.926354926079512E-003;4.908260423690081E-003;
2.401666666666667E+009;1.642699241638184E-001;3.342287242412567E-002;4.178101662546396E-003;4.930097144097090E-003;
2.401833333333334E+009;1.642577052116394E-001;3.122257255017757E-002;4.458937328308821E-003;4.648421425372362E-003;
2.402000000000000E+009;1.646122485399246E-001;2.929841354489327E-002;4.769021179527044E-003;4.586166702210903E-003;
2.402166666666667E+009;1.650311201810837E-001;2.743223495781422E-002;5.089411046355963E-003;4.463068209588528E-003;
2.402333333333334E+009;1.652938872575760E-001;2.559104189276695E-002;5.314129404723644E-003;4.371922463178635E-003;
2.402500000000000E+009;1.658727824687958E-001;2.385511063039303E-002;5.615599453449249E-003;4.047356080263853E-003;
2.402666666666667E+009;1.663068979978561E-001;2.217244543135166E-002;5.777993705123663E-003;3.888048930093646E-003;
2.402833333333334E+009;1.669839620590210E-001;2.027466706931591E-002;6.143021397292614E-003;3.775459947064519E-003;
2.403000000000000E+009;1.673875451087952E-001;1.871204562485218E-002;6.279345601797104E-003;3.321934957057238E-003;
2.403166666666667E+009;1.680453419685364E-001;1.702195219695568E-002;6.543097551912069E-003;3.066370962187648E-003;
2.403333333333334E+009;1.686987280845642E-001;1.559427380561829E-002;6.705539301037788E-003;2.787743695080280E-003;
2.403500000000000E+009;1.693885326385498E-001;1.416777167469263E-002;7.033039350062609E-003;2.662752056494355E-003;
2.403666666666667E+009;1.701646447181702E-001;1.258401852101088E-002;7.245764601975679E-003;2.090040827170014E-003;
2.403833333333334E+009;1.709442436695099E-001;1.133448258042336E-002;7.333332672715187E-003;1.644362462684512E-003;
2.404000000000000E+009;1.715366095304489E-001;1.013282965868712E-002;7.407025899738073E-003;1.373414299450815E-003;
2.404166666666667E+009;1.723102182149887E-001;8.844435214996338E-003;7.546859327703714E-003;9.325004066340625E-004;
2.404333333333334E+009;1.730178296566010E-001;7.774159777909517E-003;7.564953994005919E-003;6.950233946554363E-004;
2.404500000000000E+009;1.735166013240814E-001;6.655407138168812E-003;7.629044353961945E-003;2.517110551707447E-004;
2.404666666666667E+009;1.744523048400879E-001;5.868517793715000E-003;7.600305136293173E-003;-3.408598131500185E-004;
2.404833333333334E+009;1.750856935977936E-001;4.854798316955566E-003;7.620785385370255E-003;-6.256801425479353E-004;
2.405000000000000E+009;1.758086234331131E-001;3.943693824112415E-003;7.367264013737440E-003;-8.372851298190653E-004;
2.405166666666667E+009;1.762993335723877E-001;3.311198204755783E-003;7.539733313024044E-003;-1.363617251627147E-003;
2.405333333333334E+009;1.770618408918381E-001;2.511817496269941E-003;7.437231950461865E-003;-1.756685669533908E-003;
2.405500000000000E+009;1.776176244020462E-001;2.102519152686000E-003;7.180035114288330E-003;-2.143305959179997E-003;
2.405666666666667E+009;1.780930608510971E-001;1.488892012275755E-003;6.838020868599415E-003;-2.433574059978128E-003;
2.405833333333334E+009;1.784541308879852E-001;1.174440258182585E-003;6.912392564117909E-003;-2.698565833270550E-003;
2.406000000000000E+009;1.790733039379120E-001;5.816375487484038E-004;6.722959689795971E-003;-3.008371684700251E-003;
2.406166666666667E+009;1.792736649513245E-001;2.769638667814434E-004;6.450337823480368E-003;-3.384981304407120E-003;
2.406333333333334E+009;1.797828376293182E-001;-1.736012200126424E-004;6.345635745674372E-003;-3.670221893116832E-003;
2.406500000000000E+009;1.800388395786285E-001;-6.032506353221834E-004;6.109953857958317E-003;-3.895147005096078E-003;
2.406666666666667E+009;1.798671334981918E-001;-8.296998566947877E-004;5.933425854891539E-003;-3.992486745119095E-003;
2.406833333333334E+009;1.801219582557678E-001;-1.207222579978406E-003;5.638753529638052E-003;-4.168283659964800E-003;
2.407000000000000E+009;1.801979392766953E-001;-1.591013977304101E-003;5.386764183640480E-003;-4.507432226091623E-003;
2.407166666666667E+009;1.802704632282257E-001;-1.913704210892320E-003;5.244845990091562E-003;-4.582936409860849E-003;
2.407333333333334E+009;1.800791621208191E-001;-2.428447594866157E-003;5.106720607727766E-003;-4.742310382425785E-003;
2.407500000000000E+009;1.799169927835465E-001;-2.822087379172444E-003;4.775439854711294E-003;-4.920044448226690E-003;
2.407666666666667E+009;1.797773987054825E-001;-2.992207882925868E-003;4.563222173601389E-003;-5.025526508688927E-003;
2.407833333333334E+009;1.792928725481033E-001;-3.769069444388151E-003;4.231768194586039E-003;-5.189660936594009E-003;
2.408000000000000E+009;1.790362298488617E-001;-4.307905677706003E-003;3.983097150921822E-003;-5.312128923833370E-003;
2.408166666666667E+009;1.787046641111374E-001;-4.729837179183960E-003;3.743011970072985E-003;-5.408083088696003E-003;
2.408333333333334E+009;1.783328503370285E-001;-5.426785442978144E-003;3.469259710982442E-003;-5.444048438221216E-003;
2.408500000000000E+009;1.776071190834045E-001;-6.222120951861143E-003;3.355057910084724E-003;-5.662071984261274E-003;
2.408666666666667E+009;1.770856380462647E-001;-6.916015874594450E-003;2.974238479509950E-003;-5.687585100531578E-003;
2.408833333333334E+009;1.764393597841263E-001;-7.854592986404896E-003;2.730270847678185E-003;-5.717724561691284E-003;
2.409000000000000E+009;1.757068932056427E-001;-8.701379410922527E-003;2.603892004117370E-003;-5.815877579152584E-003;
2.409166666666667E+009;1.752381473779678E-001;-9.734708815813065E-003;2.180975629016757E-003;-5.837262608110905E-003;
2.409333333333334E+009;1.746259480714798E-001;-1.090397126972675E-002;2.038903534412384E-003;-5.817343015223742E-003;
2.409500000000000E+009;1.738659590482712E-001;-1.228969544172287E-002;1.786812557838857E-003;-5.847963038831949E-003;
2.409666666666667E+009;1.730269640684128E-001;-1.326437387615442E-002;1.486168825067580E-003;-5.863538943231106E-003;
2.409833333333334E+009;1.722694188356400E-001;-1.464199647307396E-002;1.355870161205530E-003;-5.813033320009708E-003;
2.410000000000000E+009;1.716931164264679E-001;-1.602007448673248E-002;1.108087366446853E-003;-5.739977583289146E-003;
2.410166666666667E+009;1.710468828678131E-001;-1.745256036520004E-002;9.235239122062922E-004;-5.835830699652433E-003;
2.410333333333334E+009;1.704160720109940E-001;-1.914513297379017E-002;6.872018566355109E-004;-5.737103056162596E-003;
2.410500000000000E+009;1.698026359081268E-001;-2.060761116445065E-002;4.969990695826709E-004;-5.681063514202833E-003;
2.410666666666667E+009;1.691118627786636E-001;-2.244451083242893E-002;3.400040150154382E-004;-5.721850320696831E-003;
2.410833333333334E+009;1.688200533390045E-001;-2.384275943040848E-002;1.768395159160718E-004;-5.399981047958136E-003;
2.411000000000000E+009;1.682421267032623E-001;-2.568870037794113E-002;-3.556645242497325E-005;-5.370952188968658E-003;
2.411166666666667E+009;1.677463948726654E-001;-2.744139917194843E-002;-2.211153878306504E-005;-5.303684622049332E-003;
2.411333333333334E+009;1.673000156879425E-001;-2.949086204171181E-002;-2.026596775976941E-004;-5.318311043083668E-003;
2.411500000000000E+009;1.668967753648758E-001;-3.137871995568276E-002;-3.965224022977054E-004;-5.304514430463314E-003;
2.411666666666667E+009;1.666792780160904E-001;-3.311908245086670E-002;-5.517693934962153E-004;-5.326477345079184E-003;
2.411833333333334E+009;1.665119677782059E-001;-3.502418473362923E-002;-8.298510219901800E-004;-5.244838073849678E-003;
2.412000000000000E+009;1.664701551198959E-001;-3.703914582729340E-002;-9.034993126988411E-004;-5.156971514225006E-003;
2.412166666666667E+009;1.662822216749191E-001;-3.885848447680473E-002;-8.960571722127497E-004;-5.212467163801193E-003;
2.412333333333334E+009;1.663642376661301E-001;-4.073352739214897E-002;-1.117161242291331E-003;-5.114854779094458E-003;
2.412500000000000E+009;1.662741601467133E-001;-4.273617267608643E-002;-1.276473281905055E-003;-5.100671201944351E-003;
2.412666666666667E+009;1.664823591709137E-001;-4.461058601737022E-002;-1.471583265811205E-003;-5.063895601779223E-003;
2.412833333333334E+009;1.667783260345459E-001;-4.641795530915260E-002;-1.541188801638782E-003;-4.965102765709162E-003;
2.413000000000000E+009;1.669201105833054E-001;-4.813537746667862E-002;-1.767980633303523E-003;-4.954160191118717E-003;
2.413166666666667E+009;1.671725362539291E-001;-4.973473399877548E-002;-1.927459030412138E-003;-4.818708170205355E-003;
2.413333333333334E+009;1.672750264406204E-001;-5.145515501499176E-002;-2.246641553938389E-003;-4.656212870031595E-003;
2.413500000000000E+009;1.676374524831772E-001;-5.334383994340897E-002;-2.308766357600689E-003;-4.833778832107782E-003;
2.413666666666667E+009;1.680046319961548E-001;-5.482960492372513E-002;-2.472007879987359E-003;-4.488918930292130E-003;
2.413833333333334E+009;1.683242470026016E-001;-5.627179518342018E-002;-2.727162325754762E-003;-4.581560380756855E-003;
2.414000000000000E+009;1.687135845422745E-001;-5.784399434924126E-002;-2.883687149733305E-003;-4.492871928960085E-003;
2.414166666666667E+009;1.691698431968689E-001;-5.924945324659348E-002;-3.095702268183231E-003;-4.378020297735930E-003;
2.414333333333334E+009;1.697329729795456E-001;-6.034941598773003E-002;-3.242774633690715E-003;-4.177555441856384E-003;
2.414500000000000E+009;1.703331470489502E-001;-6.154929846525192E-002;-3.453994635492563E-003;-4.172045271843672E-003;
2.414666666666667E+009;1.705414056777954E-001;-6.279081851243973E-002;-3.553090384230018E-003;-3.831245005130768E-003;
2.414833333333334E+009;1.709432303905487E-001;-6.373899430036545E-002;-3.823328297585249E-003;-3.809655550867319E-003;
2.415000000000000E+009;1.714024394750595E-001;-6.469666212797165E-002;-3.999628592282534E-003;-3.636498237028718E-003;
2.415166666666667E+009;1.716397851705551E-001;-6.554637849330902E-002;-3.994838800281286E-003;-3.392599057406187E-003;
2.415333333333334E+009;1.721774339675903E-001;-6.637071818113327E-002;-4.071727860718966E-003;-3.257470903918147E-003;
2.415500000000000E+009;1.724001467227936E-001;-6.693218648433685E-002;-4.331857897341251E-003;-3.042595228180289E-003;
2.415666666666667E+009;1.726916432380676E-001;-6.746767461299896E-002;-4.344175104051828E-003;-2.911732532083988E-003;
2.415833333333334E+009;1.729200035333633E-001;-6.804988533258438E-002;-4.501979332417250E-003;-2.611083909869194E-003;
2.416000000000000E+009;1.729146242141724E-001;-6.872092187404633E-002;-4.525971598923206E-003;-2.389537869021297E-003;
2.416166666666667E+009;1.730993986129761E-001;-6.897079199552536E-002;-4.736425355076790E-003;-2.247614320367575E-003;
2.416333333333334E+009;1.730825006961823E-001;-6.938975304365158E-002;-4.795619752258062E-003;-2.034337259829044E-003;
2.416500000000000E+009;1.730228215456009E-001;-6.981302797794342E-002;-4.857426043599844E-003;-1.752017065882683E-003;
2.416666666666667E+009;1.728757917881012E-001;-6.998825073242188E-002;-4.940984770655632E-003;-1.535875839181244E-003;
2.416833333333334E+009;1.726643443107605E-001;-7.043756544589996E-002;-4.873453173786402E-003;-1.258784905076027E-003;
2.417000000000000E+009;1.723398119211197E-001;-7.062332332134247E-002;-4.780756309628487E-003;-1.167441718280315E-003;
2.417166666666667E+009;1.718384772539139E-001;-7.065442949533463E-002;-4.851236473768950E-003;-1.002060715109110E-003;
2.417333333333334E+009;1.713990718126297E-001;-7.088296115398407E-002;-4.849991761147976E-003;-5.961137358099222E-004;
2.417500000000000E+009;1.707819402217865E-001;-7.128803431987763E-002;-4.816454835236073E-003;-5.022146506235004E-004;
2.417666666666667E+009;1.702971160411835E-001;-7.132522761821747E-002;-4.688933957368136E-003;-2.469119790475816E-004;
2.417833333333334E+009;1.694686263799667E-001;-7.159771025180817E-002;-4.808417521417141E-003;-4.303342939238064E-005;
2.418000000000000E+009;1.685843765735626E-001;-7.203608006238937E-002;-4.767306149005890E-003;1.856545859482139E-004;
2.418166666666667E+009;1.677703708410263E-001;-7.198128849267960E-002;-4.574540536850691E-003;2.626554050948471E-004;
2.418333333333334E+009;1.671586185693741E-001;-7.241574674844742E-002;-4.650742281228304E-003;4.534391337074339E-004;
2.418500000000000E+009;1.659470498561859E-001;-7.279963791370392E-002;-4.526391159743071E-003;6.898312713019550E-004;
2.418666666666667E+009;1.650039553642273E-001;-7.313703000545502E-002;-4.406027030199766E-003;8.013911428861320E-004;
2.418833333333334E+009;1.636208295822144E-001;-7.364758849143982E-002;-4.287592601031065E-003;8.572480292059481E-004;
2.419000000000000E+009;1.625770628452301E-001;-7.425673305988312E-002;-4.266805946826935E-003;1.042047981172800E-003;
2.419166666666667E+009;1.613893508911133E-001;-7.474097609519959E-002;-4.208917263895273E-003;1.222230144776404E-003;
2.419333333333334E+009;1.599249243736267E-001;-7.505190372467041E-002;-4.112783353775740E-003;1.498892554081976E-003;
2.419500000000000E+009;1.589581221342087E-001;-7.608187198638916E-002;-3.874446731060743E-003;1.418222323991358E-003;
2.419666666666667E+009;1.579467058181763E-001;-7.678141444921494E-002;-3.769960487261415E-003;1.652833423577249E-003;
2.419833333333334E+009;1.565774828195572E-001;-7.747478783130646E-002;-3.670826321467757E-003;1.783903455361724E-003;
2.420000000000000E+009;1.555066257715225E-001;-7.850342243909836E-002;-3.710309043526650E-003;1.927099307067692E-003;
2.420166666666667E+009;1.542181521654129E-001;-7.952564954757690E-002;-3.589714178815484E-003;2.105785533785820E-003;
2.420333333333334E+009;1.530735790729523E-001;-8.068432658910751E-002;-3.523327177390456E-003;2.115284558385611E-003;
2.420500000000000E+009;1.520769149065018E-001;-8.175764232873917E-002;-3.278170945122838E-003;2.291254466399550E-003;
2.420666666666667E+009;1.510330736637116E-001;-8.298763632774353E-002;-3.280138131231070E-003;2.304447116330266E-003;
2.420833333333334E+009;1.498246937990189E-001;-8.425347506999970E-002;-2.991755958646536E-003;2.491196384653449E-003;
2.421000000000000E+009;1.489036828279495E-001;-8.544446527957916E-002;-2.930812537670136E-003;2.572600496932864E-003;
2.421166666666667E+009;1.478857249021530E-001;-8.695018291473389E-002;-2.643765415996313E-003;2.618134953081608E-003;
2.421333333333334E+009;1.471524387598038E-001;-8.870096504688263E-002;-2.734695561230183E-003;2.671777503564954E-003;
2.421500000000000E+009;1.463165134191513E-001;-8.994866907596588E-002;-2.416711300611496E-003;2.877773251384497E-003;
2.421666666666667E+009;1.456587314605713E-001;-9.152808785438538E-002;-2.263322239741683E-003;2.982152858749032E-003;
2.421833333333334E+009;1.450745612382889E-001;-9.324458241462708E-002;-2.168074250221252E-003;3.013856709003449E-003;
2.422000000000000E+009;1.444949209690094E-001;-9.487722814083099E-002;-1.820786041207612E-003;3.016460919752717E-003;
2.422166666666667E+009;1.440933197736740E-001;-9.676503390073776E-002;-1.871467800810933E-003;2.873412100598216E-003;
2.422333333333334E+009;1.437669247388840E-001;-9.816133975982666E-002;-1.662167254835367E-003;2.924643922597170E-003;
2.422500000000000E+009;1.434409022331238E-001;-9.990805387496948E-002;-1.434795907698572E-003;2.981896977871656E-003;
2.422666666666667E+009;1.431880742311478E-001;-1.016492396593094E-001;-1.323713455349207E-003;2.954983152449131E-003;
2.422833333333334E+009;1.432567983865738E-001;-1.033331826329231E-001;-1.102813985198736E-003;2.973121358081698E-003;
2.423000000000000E+009;1.429069489240646E-001;-1.050683706998825E-001;-9.076381684280932E-004;2.990794135257602E-003;
2.423166666666667E+009;1.430065631866455E-001;-1.068342998623848E-001;-8.930736221373081E-004;2.814672421664000E-003;
2.423333333333334E+009;1.430614441633225E-001;-1.081566214561462E-001;-6.688141729682684E-004;2.830812940374017E-003;
2.423500000000000E+009;1.431601941585541E-001;-1.098872050642967E-001;-6.098905578255653E-004;2.721013966947794E-003;
2.423666666666667E+009;1.432999074459076E-001;-1.117291077971458E-001;-4.918611375615001E-004;2.640355145558715E-003;
2.423833333333334E+009;1.436497718095779E-001;-1.131012365221977E-001;-4.317814891692251E-004;2.683941973373294E-003;
2.424000000000000E+009;1.437707096338272E-001;-1.144274324178696E-001;-4.774396948050708E-004;2.502540359273553E-003;
2.424166666666667E+009;1.439938545227051E-001;-1.158263385295868E-001;-3.415731771383435E-004;2.393273403868079E-003;
2.424333333333334E+009;1.444803327322006E-001;-1.170672625303268E-001;-1.832789130276069E-004;2.474459819495678E-003;
2.424500000000000E+009;1.448769867420197E-001;-1.185166314244270E-001;-1.548608706798405E-004;2.413775771856308E-003;
2.424666666666667E+009;1.454508602619171E-001;-1.194681599736214E-001;-1.445379748474807E-004;2.242499729618430E-003;
2.424833333333334E+009;1.456939131021500E-001;-1.207443922758102E-001;3.863297024508938E-005;2.378657227382064E-003;
2.425000000000000E+009;1.461004912853241E-001;-1.216823011636734E-001;-8.490761683788151E-005;2.307833172380924E-003;
2.425166666666667E+009;1.462841480970383E-001;-1.225042715668678E-001;1.418306965206284E-005;2.214954467490315E-003;
2.425333333333334E+009;1.466574668884277E-001;-1.232494413852692E-001;-9.392069841851480E-006;2.340720035135746E-003;
2.425500000000000E+009;1.470087021589279E-001;-1.241742298007011E-001;1.061277071130462E-004;2.148134401068091E-003;
2.425666666666667E+009;1.471703797578812E-001;-1.247631758451462E-001;1.802180922823027E-004;2.187768463045359E-003;
2.425833333333334E+009;1.474303454160690E-001;-1.252545714378357E-001;4.858199827140197E-005;2.144247293472290E-003;
2.426000000000000E+009;1.475796103477478E-001;-1.258561909198761E-001;3.373444196768105E-004;2.071880502626300E-003;
2.426166666666667E+009;1.478677392005920E-001;-1.263471096754074E-001;2.804938412737101E-004;2.234117826446891E-003;
2.426333333333334E+009;1.478794068098068E-001;-1.266659498214722E-001;3.772669006139040E-004;2.112582791596651E-003;
2.426500000000000E+009;1.480049639940262E-001;-1.269703358411789E-001;3.262965474277735E-004;2.043289598077536E-003;
2.426666666666667E+009;1.480607837438583E-001;-1.269229054450989E-001;4.149531014263630E-004;2.127964282408357E-003;
2.426833333333334E+009;1.477632820606232E-001;-1.272716671228409E-001;3.956973378080875E-004;1.989003270864487E-003;
2.427000000000000E+009;1.474930793046951E-001;-1.273592412471771E-001;5.909288884140551E-004;2.261218382045627E-003;
2.427166666666667E+009;1.472476571798325E-001;-1.272648870944977E-001;5.084579461254180E-004;2.045328728854656E-003;
2.427333333333334E+009;1.468064934015274E-001;-1.273597627878189E-001;6.799187976866961E-004;2.071416471153498E-003;
2.427500000000000E+009;1.463792026042938E-001;-1.273650527000427E-001;6.285342387855053E-004;2.076006028801203E-003;
2.427666666666667E+009;1.457765996456146E-001;-1.274278759956360E-001;7.607958395965397E-004;2.035097219049931E-003;
