# Version 1.00
#
freq[Hz];re:Trc1_S11;im:Trc1_S11;re:Trc2_S21;im:Trc2_S21;
2.400000000000000E+009;1.550705134868622E-001;1.063889116048813E-001;-2.444326179102063E-003;-7.103322073817253E-003;
2.400166666666667E+009;1.547678112983704E-001;1.040809974074364E-001;-2.696442883461714E-003;-6.912402808666229E-003;
2.400333333333334E+009;1.549274176359177E-001;1.016211360692978E-001;-2.821366069838405E-003;-6.779441609978676E-003;
2.400500000000000E+009;1.549128144979477E-001;9.896940737962723E-002;-2.967963228002191E-003;-6.503784563392401E-003;
2.400666666666667E+009;1.549601405858994E-001;9.648969769477844E-002;-3.128337208181620E-003;-6.228848826140165E-003;
2.400833333333334E+009;1.550769358873367E-001;9.353277087211609E-002;-3.262690035626292E-003;-6.126794498413801E-003;
2.401000000000000E+009;1.554204821586609E-001;9.082782268524170E-002;-3.500794526189566E-003;-5.958733614534140E-003;
2.401166666666667E+009;1.554557532072067E-001;8.820328116416931E-002;-3.518235404044390E-003;-5.578232929110527E-003;
2.401333333333334E+009;1.558958739042282E-001;8.541082590818405E-002;-3.779676044359803E-003;-5.739095620810986E-003;
2.401500000000000E+009;1.564357727766037E-001;8.247278630733490E-002;-3.794809803366661E-003;-5.430984776467085E-003;
2.401666666666667E+009;1.567730158567429E-001;7.977341115474701E-002;-4.157165996730328E-003;-5.448303185403347E-003;
2.401833333333334E+009;1.571077555418015E-001;7.700734585523605E-002;-4.171013832092285E-003;-5.147525109350681E-003;
2.402000000000000E+009;1.580979973077774E-001;7.423138618469238E-002;-4.371606279164553E-003;-4.995658528059721E-003;
2.402166666666667E+009;1.590549647808075E-001;7.181977480649948E-002;-4.559028428047895E-003;-4.931511823087931E-003;
2.402333333333334E+009;1.599966883659363E-001;6.903575360774994E-002;-4.624844994395971E-003;-4.848672542721033E-003;
2.402500000000000E+009;1.611121892929077E-001;6.663192063570023E-002;-4.894502460956574E-003;-4.717423114925623E-003;
2.402666666666667E+009;1.622205078601837E-001;6.418471783399582E-002;-4.900168161839247E-003;-4.485534969717264E-003;
2.402833333333334E+009;1.635926812887192E-001;6.178009510040283E-002;-5.406495183706284E-003;-4.478237591683865E-003;
2.403000000000000E+009;1.650309562683106E-001;5.970528349280357E-002;-5.522032268345356E-003;-4.186366219073534E-003;
2.403166666666667E+009;1.666668206453323E-001;5.748141184449196E-002;-5.594570655375719E-003;-3.858109237626195E-003;
2.403333333333334E+009;1.681458503007889E-001;5.517305433750153E-002;-5.926668643951416E-003;-3.602322190999985E-003;
2.403500000000000E+009;1.697835922241211E-001;5.321012437343597E-002;-6.198053248226643E-003;-3.148528048768640E-003;
2.403666666666667E+009;1.714795827865601E-001;5.133259668946266E-002;-6.233000196516514E-003;-2.770275110378861E-003;
2.403833333333334E+009;1.731879860162735E-001;4.949830099940300E-002;-6.218801252543926E-003;-2.523751696571708E-003;
2.404000000000000E+009;1.745383739471436E-001;4.777489602565765E-002;-6.331244483590126E-003;-2.167517784982920E-003;
2.404166666666667E+009;1.764007210731506E-001;4.634338989853859E-002;-6.286187097430229E-003;-1.690075383521617E-003;
2.404333333333334E+009;1.780037134885788E-001;4.487906023859978E-002;-6.244046147912741E-003;-1.292833243496716E-003;
2.404500000000000E+009;1.794788092374802E-001;4.352159798145294E-002;-6.097684148699045E-003;-1.072699786163867E-003;
2.404666666666667E+009;1.812687665224075E-001;4.236546531319618E-002;-6.016137544065714E-003;-7.739296997897327E-004;
2.404833333333334E+009;1.828465163707733E-001;4.151792079210281E-002;-5.784597713500261E-003;-5.795489996671677E-004;
2.405000000000000E+009;1.841114014387131E-001;4.069798067212105E-002;-5.688362289220095E-003;-2.634194679558277E-004;
2.405166666666667E+009;1.857758760452271E-001;4.001547768712044E-002;-5.335934925824404E-003;-2.536358661018312E-004;
2.405333333333334E+009;1.869571954011917E-001;3.948223963379860E-002;-5.328194703906775E-003;4.628546594176441E-005;
2.405500000000000E+009;1.885520964860916E-001;3.910559788346291E-002;-5.198311526328325E-003;3.257269854657352E-004;
2.405666666666667E+009;1.896120160818100E-001;3.867714479565620E-002;-5.016131792217493E-003;2.433102054055780E-004;
2.405833333333334E+009;1.907591223716736E-001;3.846951201558113E-002;-4.904601722955704E-003;4.874910810030997E-004;
2.406000000000000E+009;1.918148398399353E-001;3.814741224050522E-002;-4.834643099457026E-003;6.024885224178433E-004;
2.406166666666667E+009;1.930302530527115E-001;3.797988593578339E-002;-4.583295900374651E-003;5.376963526941836E-004;
2.406333333333334E+009;1.938452422618866E-001;3.805698081851006E-002;-4.446945618838072E-003;8.054864592850208E-004;
2.406500000000000E+009;1.945261061191559E-001;3.800211474299431E-002;-4.241567570716143E-003;7.662068819627166E-004;
2.406666666666667E+009;1.951542943716049E-001;3.802925720810890E-002;-4.141802433878183E-003;7.046358659863472E-004;
2.406833333333334E+009;1.956055313348770E-001;3.792147710919380E-002;-4.069307819008827E-003;1.072939834557474E-003;
2.407000000000000E+009;1.959005445241928E-001;3.807556629180908E-002;-3.912943415343761E-003;9.823910659179092E-004;
2.407166666666667E+009;1.963244527578354E-001;3.785093501210213E-002;-3.639883594587445E-003;1.088761026039720E-003;
2.407333333333334E+009;1.960924863815308E-001;3.804118186235428E-002;-3.581168828532100E-003;1.085703726857901E-003;
2.407500000000000E+009;1.962465792894363E-001;3.802396357059479E-002;-3.440966131165624E-003;1.099965767934918E-003;
2.407666666666667E+009;1.961126178503037E-001;3.782177716493607E-002;-3.375537460669875E-003;9.325183345936239E-004;
2.407833333333334E+009;1.955386847257614E-001;3.773488476872444E-002;-3.077268833294511E-003;9.369645267724991E-004;
2.408000000000000E+009;1.954723447561264E-001;3.741333633661270E-002;-3.043591743335128E-003;8.707724045962095E-004;
2.408166666666667E+009;1.948220580816269E-001;3.709556162357330E-002;-2.808467950671911E-003;8.127554319798946E-004;
2.408333333333334E+009;1.943671703338623E-001;3.660664707422257E-002;-2.943187952041626E-003;7.177698425948620E-004;
2.408500000000000E+009;1.938256919384003E-001;3.618071600794792E-002;-2.967302687466145E-003;5.342498770914972E-004;
2.408666666666667E+009;1.930573284626007E-001;3.573171049356461E-002;-2.923557301983237E-003;5.297329043969512E-004;
2.408833333333334E+009;1.923695653676987E-001;3.481851890683174E-002;-2.923248801380396E-003;4.207864694762975E-004;
2.409000000000000E+009;1.914224177598953E-001;3.381881117820740E-002;-2.841312671080232E-003;2.414424670860171E-004;
2.409166666666667E+009;1.904909759759903E-001;3.282236307859421E-002;-3.020946634933353E-003;1.477020996389911E-004;
2.409333333333334E+009;1.895872503519058E-001;3.185040131211281E-002;-3.026429563760757E-003;2.589803189039230E-004;
2.409500000000000E+009;1.882687807083130E-001;3.044363297522068E-002;-3.177457721903920E-003;1.234136288985610E-004;
2.409666666666667E+009;1.875272542238236E-001;2.909138984978199E-002;-3.275572089478374E-003;1.520070218248293E-004;
2.409833333333334E+009;1.863943487405777E-001;2.756197750568390E-002;-3.456868696957827E-003;1.390599791193381E-004;
2.410000000000000E+009;1.854182481765747E-001;2.599617652595043E-002;-3.542055608704686E-003;2.570828946772963E-004;
2.410166666666667E+009;1.844723969697952E-001;2.403460815548897E-002;-3.663547569885850E-003;2.507409953977913E-004;
2.410333333333334E+009;1.834682971239090E-001;2.228326909244061E-002;-3.694712417200208E-003;3.725604910869151E-004;
2.410500000000000E+009;1.825041025876999E-001;2.040525153279305E-002;-3.832709044218063E-003;5.007867002859712E-004;
2.410666666666667E+009;1.817443519830704E-001;1.823113858699799E-002;-3.693454666063190E-003;4.141410463489592E-004;
2.410833333333334E+009;1.810403019189835E-001;1.588559336960316E-002;-3.894140943884850E-003;6.132686394266784E-004;
2.411000000000000E+009;1.803020685911179E-001;1.373114902526140E-002;-3.898316295817494E-003;6.467287312261760E-004;
2.411166666666667E+009;1.796555817127228E-001;1.176331844180822E-002;-3.879078431054950E-003;6.568479584529996E-004;
2.411333333333334E+009;1.792098879814148E-001;9.156765416264534E-003;-3.947315271943808E-003;8.064553258009255E-004;
2.411500000000000E+009;1.786928474903107E-001;6.717395968735218E-003;-4.130106419324875E-003;8.137818658724427E-004;
2.411666666666667E+009;1.786585599184036E-001;4.539782181382179E-003;-4.023720975965262E-003;9.450230281800032E-004;
2.411833333333334E+009;1.782542467117310E-001;2.068405272439122E-003;-4.097667522728443E-003;1.067996025085449E-003;
2.412000000000000E+009;1.784887313842773E-001;-5.482221604324877E-004;-4.286352545022965E-003;1.149347401224077E-003;
2.412166666666667E+009;1.784658282995224E-001;-2.735616872087121E-003;-4.226379096508026E-003;1.139144646003842E-003;
2.412333333333334E+009;1.787604391574860E-001;-5.204087588936091E-003;-4.427053965628147E-003;1.392265083268285E-003;
2.412500000000000E+009;1.791776120662689E-001;-7.742424029856920E-003;-4.504152573645115E-003;1.316799200139940E-003;
2.412666666666667E+009;1.797326356172562E-001;-1.012298464775085E-002;-4.650605842471123E-003;1.551351160742343E-003;
2.412833333333334E+009;1.802680194377899E-001;-1.239071320742369E-002;-4.681942984461784E-003;1.717139384709299E-003;
2.413000000000000E+009;1.812247633934021E-001;-1.475043501704931E-002;-4.913305863738060E-003;1.957198372110724E-003;
2.413166666666667E+009;1.819100379943848E-001;-1.688750460743904E-002;-4.984184168279171E-003;2.105130814015865E-003;
2.413333333333334E+009;1.829848438501358E-001;-1.905140839517117E-002;-5.088912788778544E-003;2.384005347266793E-003;
2.413500000000000E+009;1.837769299745560E-001;-2.138098329305649E-002;-5.115562118589878E-003;2.682539867237210E-003;
2.413666666666667E+009;1.849125921726227E-001;-2.350464463233948E-002;-5.244408268481493E-003;2.968925517052412E-003;
2.413833333333334E+009;1.861927211284638E-001;-2.521849051117897E-002;-5.162339191883802E-003;3.475263249129057E-003;
2.414000000000000E+009;1.871743649244309E-001;-2.740130387246609E-002;-5.038858391344547E-003;3.834405681118369E-003;
2.414166666666667E+009;1.885159015655518E-001;-2.908256277441979E-002;-5.085078533738852E-003;4.168591462075710E-003;
2.414333333333334E+009;1.896696686744690E-001;-3.092167153954506E-002;-4.718479700386524E-003;4.600147251039743E-003;
2.414500000000000E+009;1.908470988273621E-001;-3.259706124663353E-002;-4.493081942200661E-003;4.808469209820032E-003;
2.414666666666667E+009;1.920470744371414E-001;-3.389625251293182E-002;-4.106739535927773E-003;5.282938946038485E-003;
2.414833333333334E+009;1.931350678205490E-001;-3.527507185935974E-002;-3.847646759822965E-003;5.519111640751362E-003;
2.415000000000000E+009;1.941738873720169E-001;-3.650987148284912E-002;-3.747836221009493E-003;5.596639588475227E-003;
2.415166666666667E+009;1.954408735036850E-001;-3.769052401185036E-002;-3.250901820138097E-003;5.912575405091047E-003;
2.415333333333334E+009;1.965464055538178E-001;-3.853125870227814E-002;-2.833119360730052E-003;6.032435689121485E-003;
2.415500000000000E+009;1.975853443145752E-001;-3.929938748478890E-002;-2.556597115471959E-003;6.119940895587206E-003;
2.415666666666667E+009;1.986017674207687E-001;-4.014228284358978E-002;-2.229903358966112E-003;6.224822252988815E-003;
2.415833333333334E+009;1.994853019714356E-001;-4.082266986370087E-002;-2.023659879341722E-003;6.092507857829332E-003;
2.416000000000000E+009;2.002093493938446E-001;-4.130120202898979E-002;-1.541019184514880E-003;6.245944183319807E-003;
2.416166666666667E+009;2.008283287286758E-001;-4.188164696097374E-002;-1.179505256004632E-003;6.293411366641522E-003;
2.416333333333334E+009;2.015289813280106E-001;-4.212695732712746E-002;-9.483294561505318E-004;6.186664570122957E-003;
2.416500000000000E+009;2.019086182117462E-001;-4.231362417340279E-002;-7.651540799997747E-004;6.145236082375050E-003;
2.416666666666667E+009;2.022553831338882E-001;-4.270407557487488E-002;-3.906174970325083E-004;6.108148489147425E-003;
2.416833333333334E+009;2.021052986383438E-001;-4.273466765880585E-002;-2.698482712730765E-004;6.126414053142071E-003;
2.417000000000000E+009;2.023568302392960E-001;-4.297678172588348E-002;2.890432660933584E-004;6.151831708848476E-003;
2.417166666666667E+009;2.020420134067535E-001;-4.274540767073631E-002;5.737824249081314E-004;5.974335130304098E-003;
2.417333333333334E+009;2.017537653446198E-001;-4.271853342652321E-002;7.463858346454799E-004;5.731866694986820E-003;
2.417500000000000E+009;2.014619708061218E-001;-4.274460300803185E-002;9.748223237693310E-004;5.678244866430759E-003;
2.417666666666667E+009;2.008784115314484E-001;-4.265755414962769E-002;1.225235406309366E-003;5.538467783480883E-003;
2.417833333333334E+009;2.004626691341400E-001;-4.242908209562302E-002;1.421755529008806E-003;5.301069933921099E-003;
2.418000000000000E+009;1.997733861207962E-001;-4.217257350683212E-002;1.649539801292121E-003;5.307270679622889E-003;
2.418166666666667E+009;1.989398598670960E-001;-4.209444299340248E-002;1.795286312699318E-003;4.899619612842798E-003;
2.418333333333334E+009;1.980667412281036E-001;-4.197421297430992E-002;1.935473759658635E-003;4.869627766311169E-003;
2.418500000000000E+009;1.969758570194244E-001;-4.209218546748161E-002;2.016623038798571E-003;4.539720714092255E-003;
2.418666666666667E+009;1.959572136402130E-001;-4.195748642086983E-002;2.103377832099795E-003;4.414905793964863E-003;
2.418833333333334E+009;1.946498453617096E-001;-4.217445105314255E-002;2.176348119974136E-003;4.120325669646263E-003;
2.419000000000000E+009;1.932439357042313E-001;-4.239673912525177E-002;2.310008276253939E-003;3.995425533503294E-003;
2.419166666666667E+009;1.921123713254929E-001;-4.274167492985725E-002;2.223247662186623E-003;3.743401030078530E-003;
2.419333333333334E+009;1.907418370246887E-001;-4.322845861315727E-002;2.305603586137295E-003;3.519441932439804E-003;
2.419500000000000E+009;1.891686022281647E-001;-4.365716502070427E-002;2.295128768309951E-003;3.329244209453464E-003;
2.419666666666667E+009;1.876647025346756E-001;-4.444618150591850E-002;2.308314200490713E-003;3.210427938029170E-003;
2.419833333333334E+009;1.860359907150269E-001;-4.510042071342468E-002;2.353586954995990E-003;3.033778164535761E-003;
2.420000000000000E+009;1.846188306808472E-001;-4.600587114691734E-002;2.204528776928783E-003;3.080737078562379E-003;
2.420166666666667E+009;1.829088181257248E-001;-4.690252617001534E-002;2.088528126478195E-003;2.946089487522841E-003;
2.420333333333334E+009;1.814952343702316E-001;-4.815544188022614E-002;2.073670737445355E-003;2.751641906797886E-003;
2.420500000000000E+009;1.797414422035217E-001;-4.920247197151184E-002;1.878412440419197E-003;2.815744839608669E-003;
2.420666666666667E+009;1.779553741216660E-001;-5.047165602445602E-002;1.882147858850658E-003;2.658735029399395E-003;
2.420833333333334E+009;1.766392290592194E-001;-5.198593065142632E-002;1.764659304171801E-003;2.686208812519908E-003;
2.421000000000000E+009;1.750996857881546E-001;-5.366409942507744E-002;1.662280876189470E-003;2.531773876398802E-003;
2.421166666666667E+009;1.738687455654144E-001;-5.518896505236626E-002;1.624147640541196E-003;2.643960062414408E-003;
2.421333333333334E+009;1.722246408462524E-001;-5.675383657217026E-002;1.532005611807108E-003;2.564710332080722E-003;
2.421500000000000E+009;1.709801256656647E-001;-5.864308401942253E-002;1.495972624979913E-003;2.533883554860950E-003;
2.421666666666667E+009;1.699117422103882E-001;-6.049887463450432E-002;1.535945339128375E-003;2.621359890326858E-003;
2.421833333333334E+009;1.686009019613266E-001;-6.219012290239334E-002;1.487757661379874E-003;2.640068065375090E-003;
2.422000000000000E+009;1.675637811422348E-001;-6.409767270088196E-002;1.463232329115272E-003;2.774482360109687E-003;
2.422166666666667E+009;1.667129844427109E-001;-6.605083495378494E-002;1.378846238367260E-003;2.846500836312771E-003;
2.422333333333334E+009;1.658190935850143E-001;-6.827849149703980E-002;1.298334449529648E-003;2.745577134191990E-003;
2.422500000000000E+009;1.650592386722565E-001;-7.014711201190949E-002;1.413983176462352E-003;2.805716125294566E-003;
2.422666666666667E+009;1.644298434257507E-001;-7.208169251680374E-002;1.523509505204856E-003;2.976726042106748E-003;
2.422833333333334E+009;1.638934612274170E-001;-7.404393702745438E-002;1.515152282081544E-003;2.963736886158586E-003;
2.423000000000000E+009;1.634285449981690E-001;-7.616005837917328E-002;1.599219744093716E-003;2.944897394627333E-003;
2.423166666666667E+009;1.631453931331635E-001;-7.814465463161469E-002;1.604369492270052E-003;3.179346676915884E-003;
2.423333333333334E+009;1.629420220851898E-001;-8.001177012920380E-002;1.691459794528782E-003;3.012432949617505E-003;
2.423500000000000E+009;1.627960354089737E-001;-8.174934238195419E-002;1.768075977452099E-003;3.164733760058880E-003;
2.423666666666667E+009;1.627756655216217E-001;-8.362403512001038E-002;1.904038712382317E-003;3.212589770555496E-003;
2.423833333333334E+009;1.628716439008713E-001;-8.532606065273285E-002;1.738418708555400E-003;3.161987522616983E-003;
2.424000000000000E+009;1.629750430583954E-001;-8.705716580152512E-002;2.090236637741327E-003;3.450515912845731E-003;
2.424166666666667E+009;1.630665957927704E-001;-8.867607265710831E-002;2.082593273371458E-003;3.433404723182321E-003;
2.424333333333334E+009;1.632949560880661E-001;-9.019854664802551E-002;2.082398161292076E-003;3.330084029585123E-003;
2.424500000000000E+009;1.637314856052399E-001;-9.189746528863907E-002;2.271068515256047E-003;3.560782410204411E-003;
2.424666666666667E+009;1.638170182704926E-001;-9.313229471445084E-002;2.334591234102845E-003;3.704500384628773E-003;
2.424833333333334E+009;1.645156145095825E-001;-9.429761022329330E-002;2.545496448874474E-003;3.801986575126648E-003;
2.425000000000000E+009;1.648392528295517E-001;-9.564965218305588E-002;2.695019356906414E-003;3.762296633794904E-003;
2.425166666666667E+009;1.651196479797363E-001;-9.655106812715530E-002;3.041589865460992E-003;3.693671897053719E-003;
2.425333333333334E+009;1.654350906610489E-001;-9.745419770479202E-002;3.188463859260082E-003;3.864815691486001E-003;
2.425500000000000E+009;1.658516228199005E-001;-9.855529665946960E-002;3.529431298375130E-003;3.770060138776898E-003;
2.425666666666667E+009;1.662663817405701E-001;-9.909255802631378E-002;3.675780026242137E-003;3.806969150900841E-003;
2.425833333333334E+009;1.666463613510132E-001;-9.993839263916016E-002;4.085275810211897E-003;3.568047424778342E-003;
2.426000000000000E+009;1.670830696821213E-001;-1.005187556147575E-001;4.222082905471325E-003;3.435883903875947E-003;
2.426166666666667E+009;1.673585772514343E-001;-1.009456217288971E-001;4.380133934319019E-003;3.357606008648872E-003;
2.426333333333334E+009;1.675821542739868E-001;-1.014440134167671E-001;4.557706415653229E-003;3.187657799571753E-003;
2.426500000000000E+009;1.678560525178909E-001;-1.016678065061569E-001;4.801966249942780E-003;2.968164160847664E-003;
2.426666666666667E+009;1.679970771074295E-001;-1.019728258252144E-001;4.947160836309195E-003;2.814485458657146E-003;
2.426833333333334E+009;1.682862341403961E-001;-1.022748798131943E-001;5.208645947277546E-003;2.461199183017016E-003;
2.427000000000000E+009;1.682572811841965E-001;-1.025719270110130E-001;5.278898403048515E-003;2.463952172547579E-003;
2.427166666666667E+009;1.681424975395203E-001;-1.026428267359734E-001;5.366230383515358E-003;2.251346595585346E-003;
2.427333333333334E+009;1.681207269430161E-001;-1.028961315751076E-001;5.374359432607889E-003;2.053786301985383E-003;
2.427500000000000E+009;1.678728014230728E-001;-1.031313017010689E-001;5.405315198004246E-003;1.881388132460415E-003;
2.427666666666667E+009;1.675491034984589E-001;-1.031288802623749E-001;5.592211149632931E-003;1.505509600974619E-003;
2.427833333333334E+009;1.671078950166702E-001;-1.033694744110107E-001;5.678786430507898E-003;1.494438969530165E-003;
