# Version 1.00
#
freq[Hz];re:Trc1_S11;im:Trc1_S11;re:Trc2_S21;im:Trc2_S21;
2.400000000000000E+009;1.562804430723190E-001;1.116741597652435E-001;-4.744653124362230E-003;2.766674384474754E-003;
2.400166666666667E+009;1.558640748262405E-001;1.094477698206902E-001;-4.589991644024849E-003;3.007480176165700E-003;
2.400333333333334E+009;1.554679870605469E-001;1.071701422333717E-001;-4.559041000902653E-003;3.155280835926533E-003;
2.400500000000000E+009;1.551805883646011E-001;1.043414250016213E-001;-4.506879020482302E-003;3.365254495292902E-003;
2.400666666666667E+009;1.550763398408890E-001;1.019390970468521E-001;-4.241256974637508E-003;3.508103312924504E-003;
2.400833333333334E+009;1.547876149415970E-001;9.881136566400528E-002;-4.198874812573195E-003;3.681354923173785E-003;
2.401000000000000E+009;1.548693180084229E-001;9.607306122779846E-002;-4.038479644805193E-003;3.720148000866175E-003;
2.401166666666667E+009;1.545102000236511E-001;9.315108507871628E-002;-3.812500741332769E-003;3.967594355344772E-003;
2.401333333333334E+009;1.545433402061462E-001;9.012402594089508E-002;-3.747223177924752E-003;4.173291381448507E-003;
2.401500000000000E+009;1.547459661960602E-001;8.717802166938782E-002;-3.578069154173136E-003;4.336585290730000E-003;
2.401666666666667E+009;1.547398418188095E-001;8.419661968946457E-002;-3.475748468190432E-003;4.263202659785748E-003;
2.401833333333334E+009;1.550424396991730E-001;8.121293038129807E-002;-3.319623414427042E-003;4.565416835248470E-003;
2.402000000000000E+009;1.557173877954483E-001;7.824338972568512E-002;-3.272307803854346E-003;4.493803251534700E-003;
2.402166666666667E+009;1.562487632036209E-001;7.556222379207611E-002;-3.315133508294821E-003;4.688861779868603E-003;
2.402333333333334E+009;1.571640670299530E-001;7.256134599447250E-002;-3.001696662977338E-003;4.892913158982992E-003;
2.402500000000000E+009;1.581974327564240E-001;6.984725594520569E-002;-2.737573347985745E-003;5.025404039770365E-003;
2.402666666666667E+009;1.591284126043320E-001;6.717123836278915E-002;-2.841848181560636E-003;4.997089039534330E-003;
2.402833333333334E+009;1.603225618600845E-001;6.447764486074448E-002;-2.468698658049107E-003;5.150265060365200E-003;
2.403000000000000E+009;1.618207693099976E-001;6.185580044984818E-002;-2.552921418100596E-003;5.333174020051956E-003;
2.403166666666667E+009;1.634938269853592E-001;5.929507315158844E-002;-2.235312713310123E-003;5.226767156273127E-003;
2.403333333333334E+009;1.647922545671463E-001;5.686317384243012E-002;-2.151700435206294E-003;5.620048381388187E-003;
2.403500000000000E+009;1.666438728570938E-001;5.461421608924866E-002;-1.860726508311927E-003;5.673471838235855E-003;
2.403666666666667E+009;1.684931367635727E-001;5.259047448635101E-002;-1.818409422412515E-003;5.767250433564186E-003;
2.403833333333334E+009;1.702462881803513E-001;5.035001039505005E-002;-1.522351754829288E-003;5.932123865932226E-003;
2.404000000000000E+009;1.719197928905487E-001;4.826594889163971E-002;-1.145952963270247E-003;5.872278474271298E-003;
2.404166666666667E+009;1.736476123332977E-001;4.651015996932983E-002;-1.127532217651606E-003;6.190029438585043E-003;
2.404333333333334E+009;1.755582988262177E-001;4.463818669319153E-002;-1.003206358291209E-003;6.101429928094149E-003;
2.404500000000000E+009;1.773003339767456E-001;4.329279065132141E-002;-6.801696727052331E-004;6.457818672060967E-003;
2.404666666666667E+009;1.792462617158890E-001;4.192237555980682E-002;-3.712989564519376E-004;6.506268866360188E-003;
2.404833333333334E+009;1.811290830373764E-001;4.066822677850723E-002;-4.427112799021415E-005;6.629228126257658E-003;
2.405000000000000E+009;1.825760453939438E-001;3.973973542451859E-002;4.141739336773753E-004;6.672610063105822E-003;
2.405166666666667E+009;1.842283755540848E-001;3.899029642343521E-002;5.734032019972801E-004;6.671183742582798E-003;
2.405333333333334E+009;1.859740912914276E-001;3.846023604273796E-002;1.041803508996964E-003;6.558971013873816E-003;
2.405500000000000E+009;1.876121461391449E-001;3.794118389487267E-002;1.433881931006908E-003;6.546209566295147E-003;
2.405666666666667E+009;1.890314817428589E-001;3.749299049377441E-002;1.858462812379003E-003;6.431371904909611E-003;
2.405833333333334E+009;1.905914843082428E-001;3.722888976335526E-002;2.051139250397682E-003;6.342332344502211E-003;
2.406000000000000E+009;1.917799413204193E-001;3.705783188343048E-002;2.216664142906666E-003;6.017700303345919E-003;
2.406166666666667E+009;1.930503249168396E-001;3.717265650629997E-002;2.645875560119748E-003;5.859572906047106E-003;
2.406333333333334E+009;1.942618787288666E-001;3.714727237820625E-002;2.785579767078161E-003;5.836859345436096E-003;
2.406500000000000E+009;1.951763778924942E-001;3.744900599122047E-002;3.042567754164338E-003;5.478692241013050E-003;
2.406666666666667E+009;1.960234045982361E-001;3.762206435203552E-002;3.182005137205124E-003;5.427402909845114E-003;
2.406833333333334E+009;1.969320625066757E-001;3.790432587265968E-002;3.481562947854400E-003;5.237997043877840E-003;
2.407000000000000E+009;1.972798705101013E-001;3.834137320518494E-002;3.628471866250038E-003;4.958673380315304E-003;
2.407166666666667E+009;1.979133635759354E-001;3.842399269342423E-002;3.793510375544429E-003;4.780402407050133E-003;
2.407333333333334E+009;1.981763243675232E-001;3.885814920067787E-002;3.838988952338696E-003;4.679322708398104E-003;
2.407500000000000E+009;1.983307451009750E-001;3.925199061632156E-002;4.012008663266897E-003;4.616073332726955E-003;
2.407666666666667E+009;1.984841525554657E-001;3.949187695980072E-002;4.153129179030657E-003;4.091615322977305E-003;
2.407833333333334E+009;1.982156187295914E-001;3.963708877563477E-002;4.296970553696156E-003;4.086674656718969E-003;
2.408000000000000E+009;1.982028633356094E-001;3.981205448508263E-002;4.451878834515810E-003;4.048691596835852E-003;
2.408166666666667E+009;1.977051198482513E-001;3.996342420578003E-002;4.558539018034935E-003;3.681543283164501E-003;
2.408333333333334E+009;1.974060088396072E-001;3.966505080461502E-002;4.745917860418558E-003;3.657911904156208E-003;
2.408500000000000E+009;1.967108845710754E-001;3.954242542386055E-002;4.757548216730356E-003;3.377308370545507E-003;
2.408666666666667E+009;1.960441619157791E-001;3.943753242492676E-002;4.767482634633780E-003;3.120304318144918E-003;
2.408833333333334E+009;1.954324245452881E-001;3.909536823630333E-002;4.759048111736774E-003;2.754757180809975E-003;
2.409000000000000E+009;1.943520158529282E-001;3.847553953528404E-002;4.799426998943090E-003;2.609753748402000E-003;
2.409166666666667E+009;1.935468316078186E-001;3.767075762152672E-002;4.824660718441010E-003;2.467176876962185E-003;
2.409333333333334E+009;1.924302279949188E-001;3.707694262266159E-002;4.935809411108494E-003;2.347130561247468E-003;
2.409500000000000E+009;1.912688761949539E-001;3.606802225112915E-002;4.812923725694418E-003;2.011564094573259E-003;
2.409666666666667E+009;1.899209469556809E-001;3.473972901701927E-002;4.832035861909390E-003;2.091270871460438E-003;
2.409833333333334E+009;1.888055801391602E-001;3.375361859798431E-002;4.750209860503674E-003;1.853014924563468E-003;
2.410000000000000E+009;1.876545548439026E-001;3.205282613635063E-002;4.699499811977148E-003;1.816219999454916E-003;
2.410166666666667E+009;1.862846314907074E-001;3.066786564886570E-002;4.710348788648844E-003;1.439604442566633E-003;
2.410333333333334E+009;1.853492110967636E-001;2.903748676180840E-002;4.785888362675905E-003;1.374911982566118E-003;
2.410500000000000E+009;1.841562688350678E-001;2.714750170707703E-002;4.673887975513935E-003;1.258558477275074E-003;
2.410666666666667E+009;1.831490248441696E-001;2.494892105460167E-002;4.619799554347992E-003;1.233272603712976E-003;
2.410833333333334E+009;1.819624006748200E-001;2.288837172091007E-002;4.829661455005407E-003;1.093276310712099E-003;
2.411000000000000E+009;1.810696870088577E-001;2.071900852024555E-002;4.903400782495737E-003;8.944768924266100E-004;
2.411166666666667E+009;1.802126467227936E-001;1.876186579465866E-002;4.875881131738424E-003;7.351679960265756E-004;
2.411333333333334E+009;1.795373558998108E-001;1.619922928512096E-002;4.707864485681057E-003;7.739770808257163E-004;
2.411500000000000E+009;1.786800771951675E-001;1.377413515001535E-002;4.801671486347914E-003;6.049116491340101E-004;
2.411666666666667E+009;1.783846318721771E-001;1.124028209596872E-002;4.907256457954645E-003;4.419862816575915E-004;
2.411833333333334E+009;1.779267191886902E-001;8.741992525756359E-003;4.883466288447380E-003;2.232214319519699E-004;
2.412000000000000E+009;1.776605397462845E-001;6.038660649210215E-003;4.899849183857441E-003;2.671424590516836E-004;
2.412166666666667E+009;1.776751428842545E-001;3.583312965929508E-003;4.930672701448202E-003;1.282215234823525E-004;
2.412333333333334E+009;1.777793020009995E-001;9.851320646703243E-004;4.803150426596403E-003;4.286534749553539E-005;
2.412500000000000E+009;1.780460476875305E-001;-1.947523676790297E-003;5.029251333326101E-003;-2.033945056609809E-004;
2.412666666666667E+009;1.784463226795197E-001;-4.564868286252022E-003;4.916121717542410E-003;-3.508187073748559E-004;
2.412833333333334E+009;1.790013760328293E-001;-7.171977311372757E-003;4.952974151819944E-003;-4.096881602890790E-004;
2.413000000000000E+009;1.796175688505173E-001;-9.673758409917355E-003;4.967529792338610E-003;-6.197973270900548E-004;
2.413166666666667E+009;1.805205941200256E-001;-1.241360139101744E-002;4.890373442322016E-003;-6.036027334630489E-004;
2.413333333333334E+009;1.815825700759888E-001;-1.490238681435585E-002;4.844231531023979E-003;-9.287109132856131E-004;
2.413500000000000E+009;1.822595298290253E-001;-1.755479536950588E-002;4.835804458707571E-003;-1.062725088559091E-003;
2.413666666666667E+009;1.835814118385315E-001;-1.994105242192745E-002;5.094778258353472E-003;-1.232967013493180E-003;
2.413833333333334E+009;1.846186369657517E-001;-2.225701697170734E-002;4.714792128652334E-003;-1.542386133223772E-003;
2.414000000000000E+009;1.857655048370361E-001;-2.442511357367039E-002;4.840816371142864E-003;-1.753722783178091E-003;
2.414166666666667E+009;1.871275603771210E-001;-2.658393420279026E-002;4.697592929005623E-003;-1.794371637515724E-003;
2.414333333333334E+009;1.883977204561234E-001;-2.875602804124355E-002;4.622273147106171E-003;-1.903104130178690E-003;
2.414500000000000E+009;1.897434890270233E-001;-3.054980002343655E-002;4.410264082252979E-003;-2.174058230593801E-003;
2.414666666666667E+009;1.910891681909561E-001;-3.226326778531075E-002;4.374319221824408E-003;-2.313870470970869E-003;
2.414833333333334E+009;1.924189031124115E-001;-3.379370644688606E-002;4.407855682075024E-003;-2.428660634905100E-003;
2.415000000000000E+009;1.937163770198822E-001;-3.541137650609016E-002;4.328606184571981E-003;-2.636552322655916E-003;
2.415166666666667E+009;1.951494812965393E-001;-3.669747337698937E-002;4.116093274205923E-003;-2.667620545253158E-003;
2.415333333333334E+009;1.965575367212296E-001;-3.778333961963654E-002;4.094622563570738E-003;-2.801730064675212E-003;
2.415500000000000E+009;1.977830827236176E-001;-3.872183710336685E-002;4.005017224699259E-003;-2.962957601994276E-003;
2.415666666666667E+009;1.989842206239700E-001;-3.961282223463059E-002;3.838092321529985E-003;-3.228911897167563E-003;
2.415833333333334E+009;2.001630961894989E-001;-4.035649448633194E-002;3.827567677944899E-003;-3.317401977255940E-003;
2.416000000000000E+009;2.010903656482697E-001;-4.103270545601845E-002;3.708092961460352E-003;-3.535394556820393E-003;
2.416166666666667E+009;2.020917683839798E-001;-4.163538292050362E-002;3.478758968412876E-003;-3.617668058723211E-003;
2.416333333333334E+009;2.030255943536758E-001;-4.196344316005707E-002;3.186562331393361E-003;-3.737752791494131E-003;
2.416500000000000E+009;2.037627398967743E-001;-4.227725043892860E-002;3.245768370106816E-003;-4.077089484781027E-003;
2.416666666666667E+009;2.044008970260620E-001;-4.249088466167450E-002;2.975721145048738E-003;-4.206084646284580E-003;
2.416833333333334E+009;2.047132551670075E-001;-4.251956939697266E-002;2.648380352184176E-003;-4.188416525721550E-003;
2.417000000000000E+009;2.049959599971771E-001;-4.264054447412491E-002;2.513155341148377E-003;-4.419254604727030E-003;
2.417166666666667E+009;2.051144242286682E-001;-4.235612973570824E-002;2.355279400944710E-003;-4.405416082590818E-003;
2.417333333333334E+009;2.050047963857651E-001;-4.208807274699211E-002;1.936862012371421E-003;-4.398217890411615E-003;
2.417500000000000E+009;2.051098644733429E-001;-4.197919741272926E-002;1.946078380569816E-003;-4.435610491782427E-003;
2.417666666666667E+009;2.047573626041412E-001;-4.162845388054848E-002;1.640784204937518E-003;-4.389426670968533E-003;
2.417833333333334E+009;2.043919414281845E-001;-4.114020615816116E-002;1.417524879798293E-003;-4.307562485337257E-003;
2.418000000000000E+009;2.039000391960144E-001;-4.077641293406487E-002;1.257084426470101E-003;-4.147051367908716E-003;
2.418166666666667E+009;2.033454626798630E-001;-4.048334434628487E-002;1.152226352132857E-003;-4.255493171513081E-003;
2.418333333333334E+009;2.025298327207565E-001;-4.003966599702835E-002;1.060816808603704E-003;-4.186831414699554E-003;
2.418500000000000E+009;2.016813457012177E-001;-3.991376981139183E-002;9.339659009128809E-004;-4.182332195341587E-003;
2.418666666666667E+009;2.009314596652985E-001;-3.957283869385719E-002;1.001163735054433E-003;-4.263966809958220E-003;
2.418833333333334E+009;1.996530294418335E-001;-3.954715654253960E-002;8.001225069165230E-004;-4.133432637900114E-003;
2.419000000000000E+009;1.984293609857559E-001;-3.939034417271614E-002;7.136577623896301E-004;-4.101237747818232E-003;
2.419166666666667E+009;1.970668882131577E-001;-3.949666395783424E-002;5.894875503145158E-004;-4.336510784924030E-003;
2.419333333333334E+009;1.957005113363266E-001;-3.976077958941460E-002;3.976997977588326E-004;-4.103445447981358E-003;
2.419500000000000E+009;1.943403929471970E-001;-3.993997350335121E-002;2.137418632628396E-004;-4.152667708694935E-003;
2.419666666666667E+009;1.925771236419678E-001;-4.043082892894745E-002;1.806022337405011E-004;-4.237118177115917E-003;
2.419833333333334E+009;1.907627284526825E-001;-4.098648950457573E-002;1.102292080759071E-004;-4.211943596601486E-003;
2.420000000000000E+009;1.891176551580429E-001;-4.155008122324944E-002;-2.043541753664613E-004;-4.396126605570316E-003;
2.420166666666667E+009;1.874060779809952E-001;-4.243303090333939E-002;-1.475346361985430E-004;-4.232314415276051E-003;
2.420333333333334E+009;1.856319755315781E-001;-4.337777569890022E-002;-3.215187753085047E-004;-4.136270377784967E-003;
2.420500000000000E+009;1.838639229536057E-001;-4.457259550690651E-002;-5.456180078908801E-004;-4.161251243203878E-003;
2.420666666666667E+009;1.820308119058609E-001;-4.546042159199715E-002;-6.498650764115155E-004;-4.084211774170399E-003;
2.420833333333334E+009;1.801371574401856E-001;-4.692575708031654E-002;-7.569981971755624E-004;-3.894402179867029E-003;
2.421000000000000E+009;1.785630881786346E-001;-4.846882820129395E-002;-8.829531143419445E-004;-3.883354132995009E-003;
2.421166666666667E+009;1.770127415657044E-001;-4.996075108647347E-002;-9.619558695703745E-004;-3.794281277805567E-003;
2.421333333333334E+009;1.750472933053970E-001;-5.146355926990509E-002;-1.044658129103482E-003;-3.750504925847054E-003;
2.421500000000000E+009;1.737023293972015E-001;-5.364410206675530E-002;-1.204942935146391E-003;-3.714870428666472E-003;
2.421666666666667E+009;1.721534132957459E-001;-5.525623634457588E-002;-1.141546061262488E-003;-3.626118181273341E-003;
2.421833333333334E+009;1.708927750587463E-001;-5.732203647494316E-002;-1.452707452699542E-003;-3.675037296488881E-003;
2.422000000000000E+009;1.695777475833893E-001;-5.924335122108460E-002;-1.544948201626539E-003;-3.651697421446443E-003;
2.422166666666667E+009;1.683989465236664E-001;-6.149109080433846E-002;-1.613378874026239E-003;-3.561889752745628E-003;
2.422333333333334E+009;1.672731637954712E-001;-6.375534087419510E-002;-1.733473385684192E-003;-3.349255071952939E-003;
2.422500000000000E+009;1.663484126329422E-001;-6.581747531890869E-002;-1.744912588037550E-003;-3.397718304768205E-003;
2.422666666666667E+009;1.655175238847733E-001;-6.792942434549332E-002;-1.949410652741790E-003;-3.300837241113186E-003;
2.422833333333334E+009;1.648563593626022E-001;-7.031019777059555E-002;-1.905930810607970E-003;-3.292114706709981E-003;
2.423000000000000E+009;1.642147749662399E-001;-7.261364907026291E-002;-2.082290127873421E-003;-3.117320593446493E-003;
2.423166666666667E+009;1.638224124908447E-001;-7.468435913324356E-002;-2.084416802972555E-003;-2.884943038225174E-003;
2.423333333333334E+009;1.635346263647080E-001;-7.695533335208893E-002;-2.283183159306645E-003;-3.138691652566195E-003;
2.423500000000000E+009;1.633662879467011E-001;-7.890835404396057E-002;-2.196661429479718E-003;-2.894098870456219E-003;
2.423666666666667E+009;1.632902920246124E-001;-8.127995580434799E-002;-2.305427333340049E-003;-2.802558476105332E-003;
2.423833333333334E+009;1.631715893745422E-001;-8.318179845809937E-002;-2.498429734259844E-003;-2.908386290073395E-003;
2.424000000000000E+009;1.635618209838867E-001;-8.526697009801865E-002;-2.462818752974272E-003;-2.723611891269684E-003;
2.424166666666667E+009;1.636532247066498E-001;-8.701931685209274E-002;-2.721047960221767E-003;-2.747055841609836E-003;
2.424333333333334E+009;1.638897210359573E-001;-8.890803903341293E-002;-2.861027140170336E-003;-2.411104040220380E-003;
2.424500000000000E+009;1.642938405275345E-001;-9.092640876770020E-002;-2.921177074313164E-003;-2.490764250978828E-003;
2.424666666666667E+009;1.646341830492020E-001;-9.245571494102478E-002;-2.906244248151779E-003;-2.236601430922747E-003;
2.424833333333334E+009;1.652777493000031E-001;-9.420461207628250E-002;-3.163574729114771E-003;-2.105911029502749E-003;
2.425000000000000E+009;1.658722311258316E-001;-9.553551673889160E-002;-3.325596917420626E-003;-1.848338288255036E-003;
2.425166666666667E+009;1.662631928920746E-001;-9.687094390392304E-002;-3.092899452894926E-003;-1.748549519106746E-003;
2.425333333333334E+009;1.668688505887985E-001;-9.807205200195313E-002;-3.144275164231658E-003;-1.586591592058539E-003;
2.425500000000000E+009;1.674628704786301E-001;-9.915638715028763E-002;-3.319666255265474E-003;-1.311258878558874E-003;
2.425666666666667E+009;1.681041121482849E-001;-1.000917926430702E-001;-3.226230619475246E-003;-1.165260211564601E-003;
2.425833333333334E+009;1.685758531093597E-001;-1.010554134845734E-001;-3.261038800701499E-003;-1.130966120399535E-003;
2.426000000000000E+009;1.693176776170731E-001;-1.015472263097763E-001;-3.198429476469755E-003;-9.314946364611387E-004;
2.426166666666667E+009;1.698249876499176E-001;-1.022597104310989E-001;-3.085570642724633E-003;-8.319023181684315E-004;
2.426333333333334E+009;1.701520234346390E-001;-1.028515473008156E-001;-3.018900053575635E-003;-7.540405495092273E-004;
2.426500000000000E+009;1.708513200283051E-001;-1.032861247658730E-001;-3.038716968148947E-003;-7.126864511519671E-004;
2.426666666666667E+009;1.712910234928131E-001;-1.035967543721199E-001;-3.035689936950803E-003;-5.909292958676815E-004;
2.426833333333334E+009;1.718302220106125E-001;-1.038695424795151E-001;-2.858234103769064E-003;-4.273730155546218E-004;
2.427000000000000E+009;1.720034629106522E-001;-1.041597500443459E-001;-2.985579194501042E-003;-1.843105128500611E-004;
2.427166666666667E+009;1.722941100597382E-001;-1.042314767837524E-001;-2.808454446494579E-003;-4.098033241461963E-004;
2.427333333333334E+009;1.724601536989212E-001;-1.043903008103371E-001;-2.861391985788941E-003;-2.408441505394876E-004;
2.427500000000000E+009;1.724345833063126E-001;-1.044301390647888E-001;-2.826878800988197E-003;-1.429788680979982E-004;
2.427666666666667E+009;1.723332554101944E-001;-1.045684218406677E-001;-2.825491363182664E-003;-1.294109097216278E-004;
2.427833333333334E+009;1.722267121076584E-001;-1.045501455664635E-001;-2.783405128866434E-003;-7.263392762979493E-005;
