# Version 1.00
#
freq[Hz];re:Trc1_S11;im:Trc1_S11;re:Trc2_S21;im:Trc2_S21;
2.400000000000000E+009;1.556976586580277E-001;1.114097833633423E-001;-4.655834753066301E-003;2.483868272975087E-003;
2.400166666666667E+009;1.551210433244705E-001;1.091414242982864E-001;-4.629970062524080E-003;2.766727935522795E-003;
2.400333333333334E+009;1.549807786941528E-001;1.068692654371262E-001;-4.613291006535292E-003;3.114007879048586E-003;
2.400500000000000E+009;1.544214487075806E-001;1.041500866413117E-001;-4.508739802986383E-003;3.276240779086947E-003;
2.400666666666667E+009;1.543690860271454E-001;1.016458645462990E-001;-4.252372309565544E-003;3.423750633373857E-003;
2.400833333333334E+009;1.540611535310745E-001;9.867845475673676E-002;-4.313796292990446E-003;3.643148811534047E-003;
2.401000000000000E+009;1.538824886083603E-001;9.585874527692795E-002;-3.989762160927057E-003;3.827588399872184E-003;
2.401166666666667E+009;1.537379473447800E-001;9.291692823171616E-002;-3.977161366492510E-003;3.946401178836823E-003;
2.401333333333334E+009;1.538420617580414E-001;9.012389183044434E-002;-3.789575770497322E-003;4.139961674809456E-003;
2.401500000000000E+009;1.537960916757584E-001;8.713204413652420E-002;-3.715078579261899E-003;4.199902527034283E-003;
2.401666666666667E+009;1.542326658964157E-001;8.398289978504181E-002;-3.499640384688973E-003;4.315092228353024E-003;
2.401833333333334E+009;1.542805135250092E-001;8.113730698823929E-002;-3.594355657696724E-003;4.538758657872677E-003;
2.402000000000000E+009;1.548571288585663E-001;7.813705503940582E-002;-3.363376017659903E-003;4.638680722564459E-003;
2.402166666666667E+009;1.556360721588135E-001;7.544311881065369E-002;-3.354924498125911E-003;4.706122446805239E-003;
2.402333333333334E+009;1.562970727682114E-001;7.249527424573898E-002;-2.848891308531165E-003;4.921792540699244E-003;
2.402500000000000E+009;1.573121249675751E-001;6.970550119876862E-002;-2.785785356536508E-003;4.913149401545525E-003;
2.402666666666667E+009;1.584187895059586E-001;6.728012114763260E-002;-2.807128243148327E-003;5.187881179153919E-003;
2.402833333333334E+009;1.595291048288345E-001;6.449807435274124E-002;-2.560592489317060E-003;5.180370528250933E-003;
2.403000000000000E+009;1.609716713428497E-001;6.188541650772095E-002;-2.383648417890072E-003;5.346220917999744E-003;
2.403166666666667E+009;1.627938896417618E-001;5.955062061548233E-002;-2.434546826407313E-003;5.386192817240953E-003;
2.403333333333334E+009;1.640970557928085E-001;5.705924704670906E-002;-2.144916681572795E-003;5.606538150459528E-003;
2.403500000000000E+009;1.658693403005600E-001;5.490090325474739E-002;-1.978837652131915E-003;5.716686602681875E-003;
2.403666666666667E+009;1.676785349845886E-001;5.271325632929802E-002;-1.701176166534424E-003;5.814950447529554E-003;
2.403833333333334E+009;1.693542450666428E-001;5.053802207112312E-002;-1.425950787961483E-003;6.066105794161558E-003;
2.404000000000000E+009;1.710530519485474E-001;4.861068353056908E-002;-1.368574448861182E-003;6.196908187121153E-003;
2.404166666666667E+009;1.729872375726700E-001;4.698392376303673E-002;-1.102918758988380E-003;6.129935849457979E-003;
2.404333333333334E+009;1.747872382402420E-001;4.522715508937836E-002;-9.108621161431074E-004;6.484461948275566E-003;
2.404500000000000E+009;1.766530126333237E-001;4.376953840255737E-002;-5.752700380980969E-004;6.395977456122637E-003;
2.404666666666667E+009;1.784443855285645E-001;4.253984242677689E-002;-2.016715443460271E-004;6.449094973504543E-003;
2.404833333333334E+009;1.803459674119949E-001;4.120439291000366E-002;8.662795880809426E-005;6.592068355530500E-003;
2.405000000000000E+009;1.819412708282471E-001;4.047371074557304E-002;4.364866181276739E-004;6.628379225730896E-003;
2.405166666666667E+009;1.838085353374481E-001;3.961868584156036E-002;7.835337310098112E-004;6.495504174381495E-003;
2.405333333333334E+009;1.854826211929321E-001;3.913457319140434E-002;9.629113483242691E-004;6.575502455234528E-003;
2.405500000000000E+009;1.871880441904068E-001;3.852604329586029E-002;1.357924425974488E-003;6.438227836042643E-003;
2.405666666666667E+009;1.886587888002396E-001;3.824154287576675E-002;1.704723690636456E-003;6.466319318860769E-003;
2.405833333333334E+009;1.902408301830292E-001;3.809264302253723E-002;2.036576624959707E-003;6.272447295486927E-003;
2.406000000000000E+009;1.915319561958313E-001;3.787759691476822E-002;2.366677857935429E-003;6.177342031151056E-003;
2.406166666666667E+009;1.927529722452164E-001;3.782985731959343E-002;2.773327054455876E-003;5.808164831250906E-003;
2.406333333333334E+009;1.939233243465424E-001;3.789007291197777E-002;2.856914419680834E-003;5.607766099274159E-003;
2.406500000000000E+009;1.949915438890457E-001;3.814193233847618E-002;3.125437535345554E-003;5.588458850979805E-003;
2.406666666666667E+009;1.957544982433319E-001;3.845702856779099E-002;3.209165297448635E-003;5.421412177383900E-003;
2.406833333333334E+009;1.966864317655563E-001;3.860334679484367E-002;3.562070429325104E-003;5.061792675405741E-003;
2.407000000000000E+009;1.972071379423142E-001;3.896056115627289E-002;3.646971192210913E-003;4.953809548169375E-003;
2.407166666666667E+009;1.978385895490646E-001;3.910864517092705E-002;3.826536471024156E-003;4.766575526446104E-003;
2.407333333333334E+009;1.980042010545731E-001;3.940353542566299E-002;3.907310310751200E-003;4.613227676600218E-003;
2.407500000000000E+009;1.981902420520783E-001;3.987969830632210E-002;4.196954425424337E-003;4.473436158150435E-003;
2.407666666666667E+009;1.984551846981049E-001;4.011100530624390E-002;4.121465608477593E-003;4.296285100281239E-003;
2.407833333333334E+009;1.981542855501175E-001;4.028932750225067E-002;4.339203238487244E-003;4.084960557520390E-003;
2.408000000000000E+009;1.980916559696198E-001;4.037735983729363E-002;4.284063819795847E-003;3.957159351557493E-003;
2.408166666666667E+009;1.976991742849350E-001;4.040780290961266E-002;4.481062293052673E-003;3.772291122004390E-003;
2.408333333333334E+009;1.973020732402802E-001;4.019754752516747E-002;4.765978548675776E-003;3.509972710162401E-003;
2.408500000000000E+009;1.967501342296600E-001;4.013895615935326E-002;4.755295813083649E-003;3.150584409013391E-003;
2.408666666666667E+009;1.960942596197128E-001;4.004231840372086E-002;4.942460451275110E-003;3.036750247702003E-003;
2.408833333333334E+009;1.953505426645279E-001;3.960615023970604E-002;4.885585512965918E-003;2.723938319832087E-003;
2.409000000000000E+009;1.943475306034088E-001;3.899043798446655E-002;4.787183366715908E-003;2.439219271764159E-003;
2.409166666666667E+009;1.934035718441010E-001;3.837915137410164E-002;4.867064766585827E-003;2.354207914322615E-003;
2.409333333333334E+009;1.924288421869278E-001;3.755903616547585E-002;4.803520161658526E-003;2.021407242864370E-003;
2.409500000000000E+009;1.911130547523499E-001;3.659443929791451E-002;4.790204111486673E-003;1.880050869658589E-003;
2.409666666666667E+009;1.901921480894089E-001;3.542357683181763E-002;4.777890164405108E-003;1.854695612564683E-003;
2.409833333333334E+009;1.890611499547958E-001;3.420301154255867E-002;4.749472718685865E-003;1.597181078977883E-003;
2.410000000000000E+009;1.878826171159744E-001;3.278848901391029E-002;4.606513772159815E-003;1.437818165868521E-003;
2.410166666666667E+009;1.866553723812103E-001;3.117817826569080E-002;4.754603840410709E-003;1.468560076318681E-003;
2.410333333333334E+009;1.855170279741287E-001;2.951124683022499E-002;4.544810857623816E-003;1.204792875796557E-003;
2.410500000000000E+009;1.842310726642609E-001;2.774910070002079E-002;4.678985569626093E-003;1.082226750440896E-003;
2.410666666666667E+009;1.832540184259415E-001;2.558047883212566E-002;4.676789976656437E-003;9.342143894173205E-004;
2.410833333333334E+009;1.822859495878220E-001;2.325619757175446E-002;4.715746734291315E-003;1.064118812792003E-003;
2.411000000000000E+009;1.813565790653229E-001;2.123476751148701E-002;4.623413551598787E-003;8.286466472782195E-004;
2.411166666666667E+009;1.804133057594299E-001;1.902047544717789E-002;4.788589198142290E-003;7.701001013629139E-004;
2.411333333333334E+009;1.796699762344360E-001;1.654675602912903E-002;4.747279454022646E-003;5.001651006750763E-004;
2.411500000000000E+009;1.789811402559280E-001;1.409430243074894E-002;4.607418552041054E-003;4.863897920586169E-004;
2.411666666666667E+009;1.786990165710449E-001;1.158814504742622E-002;4.586293362081051E-003;3.335370856802911E-004;
2.411833333333334E+009;1.781334578990936E-001;9.098422713577747E-003;4.648124799132347E-003;3.361639683134854E-004;
2.412000000000000E+009;1.781047731637955E-001;6.435353308916092E-003;4.595966078341007E-003;6.559042230946943E-005;
2.412166666666667E+009;1.780982017517090E-001;3.983458504080772E-003;4.609291441738606E-003;1.298462739214301E-004;
2.412333333333334E+009;1.779791712760925E-001;1.125008682720363E-003;4.671182017773390E-003;-1.194955038954504E-004;
2.412500000000000E+009;1.783946007490158E-001;-1.464134664274752E-003;4.548000171780586E-003;-2.661484468262643E-004;
2.412666666666667E+009;1.786673814058304E-001;-4.292288329452276E-003;4.542869050055742E-003;-3.514334675855935E-004;
2.412833333333334E+009;1.794717013835907E-001;-6.941682193428278E-003;4.574674181640148E-003;-3.409856581129134E-004;
2.413000000000000E+009;1.798961311578751E-001;-9.465551935136318E-003;4.680011421442032E-003;-5.960362614132464E-004;
2.413166666666667E+009;1.807353347539902E-001;-1.188091747462750E-002;4.511312115937471E-003;-8.297273307107389E-004;
2.413333333333334E+009;1.818094551563263E-001;-1.459919009357691E-002;4.548089113086462E-003;-8.106822497211397E-004;
2.413500000000000E+009;1.826760470867157E-001;-1.716615073382855E-002;4.735148977488279E-003;-1.140468637458980E-003;
2.413666666666667E+009;1.837881505489349E-001;-1.948295533657074E-002;4.486407153308392E-003;-1.211743801832199E-003;
2.413833333333334E+009;1.849790215492249E-001;-2.183703891932964E-002;4.457062110304833E-003;-1.445746514946222E-003;
2.414000000000000E+009;1.860607266426086E-001;-2.416471019387245E-002;4.488471895456314E-003;-1.529316068626940E-003;
2.414166666666667E+009;1.874653398990631E-001;-2.614959329366684E-002;4.342516884207726E-003;-1.678712316788733E-003;
2.414333333333334E+009;1.886602342128754E-001;-2.835074625909329E-002;4.206104204058647E-003;-1.978742657229304E-003;
2.414500000000000E+009;1.901008784770966E-001;-3.024744242429733E-002;4.170581232756376E-003;-1.925708726048470E-003;
2.414666666666667E+009;1.914030313491821E-001;-3.207370638847351E-002;4.102251026779413E-003;-2.138660056516528E-003;
2.414833333333334E+009;1.927593052387238E-001;-3.349069505929947E-002;3.944708500057459E-003;-2.329364651814103E-003;
2.415000000000000E+009;1.939353644847870E-001;-3.494283184409142E-002;3.856219351291657E-003;-2.399574499577284E-003;
2.415166666666667E+009;1.955907046794891E-001;-3.637314960360527E-002;3.723761532455683E-003;-2.599446102976799E-003;
2.415333333333334E+009;1.967731118202210E-001;-3.735830634832382E-002;3.972648177295923E-003;-2.547366078943014E-003;
2.415500000000000E+009;1.982634216547012E-001;-3.825964778661728E-002;3.657307242974639E-003;-2.693789079785347E-003;
2.415666666666667E+009;1.995931714773178E-001;-3.919263929128647E-002;3.527365392073989E-003;-2.925469772890210E-003;
2.415833333333334E+009;2.007083743810654E-001;-4.000661522150040E-002;3.525798441842198E-003;-2.995169721543789E-003;
2.416000000000000E+009;2.017874419689179E-001;-4.069910943508148E-002;3.408722346648574E-003;-3.105027833953500E-003;
2.416166666666667E+009;2.027796357870102E-001;-4.140577092766762E-002;3.315116511657834E-003;-3.276144154369831E-003;
2.416333333333334E+009;2.036421298980713E-001;-4.166183993220329E-002;3.222347935661674E-003;-3.402942791581154E-003;
2.416500000000000E+009;2.045039385557175E-001;-4.192486777901650E-002;3.070168895646930E-003;-3.443984314799309E-003;
2.416666666666667E+009;2.050524652004242E-001;-4.226122796535492E-002;2.880836836993694E-003;-3.868419444188476E-003;
2.416833333333334E+009;2.054401040077210E-001;-4.219816252589226E-002;2.553524216637015E-003;-3.795941825956106E-003;
2.417000000000000E+009;2.058821320533752E-001;-4.234447330236435E-002;2.565378323197365E-003;-3.771794494241476E-003;
2.417166666666667E+009;2.058877497911453E-001;-4.216463118791580E-002;2.296655438840389E-003;-4.015034995973110E-003;
2.417333333333334E+009;2.058671116828919E-001;-4.194655269384384E-002;1.951444079168141E-003;-3.912970889359713E-003;
2.417500000000000E+009;2.057665586471558E-001;-4.193140193820000E-002;1.813408802263439E-003;-4.012561403214932E-003;
2.417666666666667E+009;2.055395841598511E-001;-4.139816761016846E-002;1.550683053210378E-003;-3.947615157812834E-003;
2.417833333333334E+009;2.052841633558273E-001;-4.121340811252594E-002;1.532351714558899E-003;-3.830860601738095E-003;
2.418000000000000E+009;2.048241943120956E-001;-4.079189524054527E-002;1.420430140569806E-003;-3.812915412709117E-003;
2.418166666666667E+009;2.041993588209152E-001;-4.052037000656128E-002;1.303391996771097E-003;-3.823149949312210E-003;
2.418333333333334E+009;2.034998536109924E-001;-4.031760618090630E-002;1.337242079898715E-003;-3.642471041530371E-003;
2.418500000000000E+009;2.024229764938355E-001;-4.007214307785034E-002;1.171068404801190E-003;-3.714145626872778E-003;
2.418666666666667E+009;2.017448246479034E-001;-3.967725485563278E-002;9.659902425482869E-004;-3.714683232828975E-003;
2.418833333333334E+009;2.004399597644806E-001;-3.979536518454552E-002;1.077142660506070E-003;-3.859653370454907E-003;
2.419000000000000E+009;1.991489678621292E-001;-3.976260498166084E-002;9.094238630495966E-004;-3.969427198171616E-003;
2.419166666666667E+009;1.978476345539093E-001;-3.974763676524162E-002;6.852391525171697E-004;-4.020576830953360E-003;
2.419333333333334E+009;1.965269744396210E-001;-4.017856344580650E-002;6.957610603421927E-004;-3.968781325966120E-003;
2.419500000000000E+009;1.949523836374283E-001;-4.033759236335754E-002;4.582232504617423E-004;-3.954665735363960E-003;
2.419666666666667E+009;1.933569759130478E-001;-4.094355553388596E-002;4.888958646915853E-004;-4.119209479540587E-003;
2.419833333333334E+009;1.915303021669388E-001;-4.135894402861595E-002;1.614737120689824E-004;-3.956631757318974E-003;
2.420000000000000E+009;1.900086700916290E-001;-4.214268550276756E-002;1.498865894973278E-004;-3.995729144662619E-003;
2.420166666666667E+009;1.881102919578552E-001;-4.293832182884216E-002;-1.522836391814053E-004;-3.963031806051731E-003;
2.420333333333334E+009;1.863194555044174E-001;-4.389667138457298E-002;-1.845118385972455E-004;-3.958037123084068E-003;
2.420500000000000E+009;1.845041364431381E-001;-4.511927813291550E-002;-3.620049392338842E-004;-4.068312235176563E-003;
2.420666666666667E+009;1.826895624399185E-001;-4.610319808125496E-002;-5.289792316034436E-004;-3.979143220931292E-003;
2.420833333333334E+009;1.807891279459000E-001;-4.751653596758843E-002;-6.664913380518556E-004;-3.847476094961166E-003;
2.421000000000000E+009;1.790835559368134E-001;-4.898733273148537E-002;-6.194300367496908E-004;-3.773849224671722E-003;
2.421166666666667E+009;1.775740534067154E-001;-5.054529756307602E-002;-8.403285173699260E-004;-3.585682949051261E-003;
2.421333333333334E+009;1.755896955728531E-001;-5.215216428041458E-002;-9.773469064384699E-004;-3.663909854367375E-003;
2.421500000000000E+009;1.740372925996780E-001;-5.412603542208672E-002;-9.002141305245459E-004;-3.678218228742480E-003;
2.421666666666667E+009;1.726476699113846E-001;-5.605313181877136E-002;-1.152819488197565E-003;-3.598410869017243E-003;
2.421833333333334E+009;1.712000072002411E-001;-5.793624371290207E-002;-1.126019633375108E-003;-3.520221216604114E-003;
2.422000000000000E+009;1.700560599565506E-001;-5.991856008768082E-002;-1.157159684225917E-003;-3.534768242388964E-003;
2.422166666666667E+009;1.689990311861038E-001;-6.230783462524414E-002;-1.356611610390246E-003;-3.372718812897801E-003;
2.422333333333334E+009;1.675090044736862E-001;-6.433731317520142E-002;-1.418143627233803E-003;-3.323022974655032E-003;
2.422500000000000E+009;1.666890829801559E-001;-6.643813103437424E-002;-1.514923525974155E-003;-3.276690840721130E-003;
2.422666666666667E+009;1.660337448120117E-001;-6.873430311679840E-002;-1.523951068520546E-003;-3.299270756542683E-003;
2.422833333333334E+009;1.652850657701492E-001;-7.092612236738205E-002;-1.805047853849828E-003;-3.121830290183425E-003;
2.423000000000000E+009;1.645490229129791E-001;-7.323724776506424E-002;-1.791397342458367E-003;-3.074130509048700E-003;
2.423166666666667E+009;1.641534119844437E-001;-7.558766007423401E-002;-1.878934795968235E-003;-2.996039809659123E-003;
2.423333333333334E+009;1.638061702251434E-001;-7.771906256675720E-002;-1.765099354088306E-003;-3.039127914234996E-003;
2.423500000000000E+009;1.636888384819031E-001;-7.964007556438446E-002;-1.912949606776238E-003;-2.766269026324153E-003;
2.423666666666667E+009;1.636123955249786E-001;-8.207439631223679E-002;-2.059632679447532E-003;-2.938479650765657E-003;
2.423833333333334E+009;1.635991185903549E-001;-8.402421325445175E-002;-2.235873835161328E-003;-2.816787920892239E-003;
2.424000000000000E+009;1.634996831417084E-001;-8.612444996833801E-002;-2.293847035616636E-003;-2.693192334845662E-003;
2.424166666666667E+009;1.634812653064728E-001;-8.802706003189087E-002;-2.407558029517531E-003;-2.652960363775492E-003;
2.424333333333334E+009;1.638705730438232E-001;-8.997471630573273E-002;-2.555598272010684E-003;-2.474328503012657E-003;
2.424500000000000E+009;1.642481535673142E-001;-9.177900105714798E-002;-2.637676894664764E-003;-2.425607759505510E-003;
2.424666666666667E+009;1.646068096160889E-001;-9.335885196924210E-002;-2.848656848073006E-003;-2.239413792267442E-003;
2.424833333333334E+009;1.651952117681503E-001;-9.507348388433456E-002;-2.739537740126252E-003;-2.188256243243814E-003;
2.425000000000000E+009;1.656767278909683E-001;-9.642545878887177E-002;-2.692369511350989E-003;-1.942157861776650E-003;
2.425166666666667E+009;1.660896539688110E-001;-9.775439649820328E-002;-2.941912738606334E-003;-1.949677243828774E-003;
2.425333333333334E+009;1.665669530630112E-001;-9.881063550710678E-002;-2.815786283463240E-003;-1.601542928256095E-003;
2.425500000000000E+009;1.671432703733444E-001;-1.000021174550057E-001;-2.934227697551251E-003;-1.569843152537942E-003;
2.425666666666667E+009;1.676492691040039E-001;-1.009692475199699E-001;-2.964537125080824E-003;-1.273772795684636E-003;
2.425833333333334E+009;1.682868301868439E-001;-1.018540859222412E-001;-3.002346958965063E-003;-1.317346002906561E-003;
2.426000000000000E+009;1.688508987426758E-001;-1.024341881275177E-001;-2.821830566972494E-003;-1.274660811759532E-003;
2.426166666666667E+009;1.694283038377762E-001;-1.030433923006058E-001;-2.743201795965433E-003;-1.031709369271994E-003;
2.426333333333334E+009;1.697791367769241E-001;-1.036878675222397E-001;-2.660889644175768E-003;-9.617965552024543E-004;
2.426500000000000E+009;1.704979240894318E-001;-1.039509102702141E-001;-2.750078216195107E-003;-8.654830162413418E-004;
2.426666666666667E+009;1.708211749792099E-001;-1.043220758438110E-001;-2.643552143126726E-003;-7.355277775786817E-004;
2.426833333333334E+009;1.713049560785294E-001;-1.045617386698723E-001;-2.629570430144668E-003;-7.615236681886017E-004;
2.427000000000000E+009;1.715700924396515E-001;-1.048258468508720E-001;-2.717200201004744E-003;-7.188670570030808E-004;
2.427166666666667E+009;1.718319654464722E-001;-1.048601195216179E-001;-2.714735688641667E-003;-5.193853285163641E-004;
2.427333333333334E+009;1.719102859497070E-001;-1.051104143261910E-001;-2.686018357053399E-003;-4.668643232434988E-004;
2.427500000000000E+009;1.718570291996002E-001;-1.051341593265533E-001;-2.508959500119090E-003;-4.554366460070014E-004;
2.427666666666667E+009;1.717347800731659E-001;-1.051502227783203E-001;-2.479107817634940E-003;-4.322928143665195E-004;
2.427833333333334E+009;1.715778410434723E-001;-1.051140800118446E-001;-2.667470602318645E-003;-3.734943165909499E-004;
