# Version 1.00
#
freq[Hz];re:Trc1_S11;im:Trc1_S11;re:Trc2_S21;im:Trc2_S21;
2.400000000000000E+009;1.551664173603058E-001;1.066434830427170E-001;1.353699830360711E-003;5.846417043358088E-003;
2.400166666666667E+009;1.549103707075119E-001;1.042754873633385E-001;1.268171705305576E-003;6.037391722202301E-003;
2.400333333333334E+009;1.550600230693817E-001;1.019254997372627E-001;1.509975991211832E-003;5.926092620939016E-003;
2.400500000000000E+009;1.547815799713135E-001;9.914322942495346E-002;1.580191892571747E-003;5.967530887573957E-003;
2.400666666666667E+009;1.549566090106964E-001;9.659696370363236E-002;1.836992567405105E-003;5.819946527481079E-003;
2.400833333333334E+009;1.548141986131668E-001;9.367881715297699E-002;1.809490961022675E-003;5.919255781918764E-003;
2.401000000000000E+009;1.551135480403900E-001;9.093734622001648E-002;2.093415241688490E-003;6.069588474929333E-003;
2.401166666666667E+009;1.550343930721283E-001;8.809792250394821E-002;2.222226001322269E-003;5.955057218670845E-003;
2.401333333333334E+009;1.553802043199539E-001;8.524917811155319E-002;2.367248060181737E-003;5.942419171333313E-003;
2.401500000000000E+009;1.559325605630875E-001;8.244113624095917E-002;2.347564790397883E-003;6.067935843020678E-003;
2.401666666666667E+009;1.561418175697327E-001;7.950908690690994E-002;2.649253001436591E-003;6.031041033565998E-003;
2.401833333333334E+009;1.565650701522827E-001;7.699417322874069E-002;2.755458699539304E-003;6.212361156940460E-003;
2.402000000000000E+009;1.575020998716354E-001;7.420478761196137E-002;2.924842527136207E-003;6.117038894444704E-003;
2.402166666666667E+009;1.583488881587982E-001;7.135107368230820E-002;3.074641106650233E-003;6.173878442496061E-003;
2.402333333333334E+009;1.592844128608704E-001;6.872950494289398E-002;3.403914626687765E-003;6.305991671979427E-003;
2.402500000000000E+009;1.602479666471481E-001;6.611213833093643E-002;3.783532883971930E-003;6.294926628470421E-003;
2.402666666666667E+009;1.614687591791153E-001;6.383791565895081E-002;3.899713512510061E-003;6.289980839937925E-003;
2.402833333333334E+009;1.625896245241165E-001;6.139145791530609E-002;4.332566633820534E-003;6.182773970067501E-003;
2.403000000000000E+009;1.639572679996491E-001;5.905063077807427E-002;4.748168867081404E-003;6.277087610214949E-003;
2.403166666666667E+009;1.657131761312485E-001;5.697316676378250E-002;5.236020777374506E-003;6.130916997790337E-003;
2.403333333333334E+009;1.671694517135620E-001;5.460199713706970E-002;5.686824675649405E-003;6.051057949662209E-003;
2.403500000000000E+009;1.687294840812683E-001;5.251756310462952E-002;5.941404961049557E-003;5.744786467403173E-003;
2.403666666666667E+009;1.705504804849625E-001;5.061357095837593E-002;6.486565805971623E-003;5.439504981040955E-003;
2.403833333333334E+009;1.721212565898895E-001;4.885492473840714E-002;6.773301400244236E-003;5.088185891509056E-003;
2.404000000000000E+009;1.735640019178391E-001;4.695461690425873E-002;7.004689890891314E-003;4.643542226403952E-003;
2.404166666666667E+009;1.754677295684815E-001;4.560729488730431E-002;7.278662640601397E-003;4.234668333083391E-003;
2.404333333333334E+009;1.769770234823227E-001;4.409429803490639E-002;7.511992007493973E-003;3.735265927389264E-003;
2.404500000000000E+009;1.786715984344482E-001;4.270802065730095E-002;7.669829297810793E-003;3.550048684701324E-003;
2.404666666666667E+009;1.802514940500259E-001;4.183462262153626E-002;7.791124749928713E-003;3.005138831213117E-003;
2.404833333333334E+009;1.818857789039612E-001;4.080165177583695E-002;7.568507455289364E-003;2.463804325088859E-003;
2.405000000000000E+009;1.832707226276398E-001;4.005898907780647E-002;7.940791547298431E-003;2.001058077439666E-003;
2.405166666666667E+009;1.848424375057221E-001;3.953960537910461E-002;7.820725440979004E-003;1.621286151930690E-003;
2.405333333333334E+009;1.862536817789078E-001;3.893385082483292E-002;7.758786901831627E-003;1.422905595973134E-003;
2.405500000000000E+009;1.877050697803497E-001;3.861537948250771E-002;7.561384700238705E-003;8.135496755130589E-004;
2.405666666666667E+009;1.889604032039642E-001;3.817138075828552E-002;7.481655105948448E-003;7.867863751016557E-004;
2.405833333333334E+009;1.902431100606918E-001;3.797969222068787E-002;7.388301659375429E-003;1.528045977465808E-004;
2.406000000000000E+009;1.911946684122086E-001;3.792490810155869E-002;7.154023740440607E-003;-4.903342050965875E-005;
2.406166666666667E+009;1.922351419925690E-001;3.783335164189339E-002;7.233490236103535E-003;-2.290547854499891E-004;
2.406333333333334E+009;1.933309733867645E-001;3.787108883261681E-002;7.106191478669643E-003;-4.827807133551687E-004;
2.406500000000000E+009;1.939113289117813E-001;3.796851262450218E-002;6.856826599687338E-003;-7.896574679762125E-004;
2.406666666666667E+009;1.947417855262756E-001;3.791990131139755E-002;6.648998241871595E-003;-9.051548549905419E-004;
2.406833333333334E+009;1.952071338891983E-001;3.810446336865425E-002;6.539817899465561E-003;-1.197764184325934E-003;
2.407000000000000E+009;1.955797821283341E-001;3.833325579762459E-002;6.294466555118561E-003;-1.222209888510406E-003;
2.407166666666667E+009;1.959769427776337E-001;3.831528499722481E-002;6.048326846212149E-003;-1.579513773322105E-003;
2.407333333333334E+009;1.960389465093613E-001;3.835270181298256E-002;5.907539278268814E-003;-1.746611902490258E-003;
2.407500000000000E+009;1.958968192338944E-001;3.850699961185455E-002;5.729450844228268E-003;-1.824835082516074E-003;
2.407666666666667E+009;1.960605382919312E-001;3.847907483577728E-002;5.620265845209360E-003;-1.894385670311749E-003;
2.407833333333334E+009;1.957056969404221E-001;3.831271082162857E-002;5.356482695788145E-003;-2.015173435211182E-003;
2.408000000000000E+009;1.955680102109909E-001;3.832776471972466E-002;5.223406944423914E-003;-2.010742668062449E-003;
2.408166666666667E+009;1.950920224189758E-001;3.800011798739433E-002;5.026872269809246E-003;-2.166555495932698E-003;
2.408333333333334E+009;1.945888251066208E-001;3.739019483327866E-002;4.829265177249908E-003;-2.193927299231291E-003;
2.408500000000000E+009;1.939912587404251E-001;3.723353892564774E-002;4.814682528376579E-003;-2.195924287661910E-003;
2.408666666666667E+009;1.933950632810593E-001;3.668987378478050E-002;4.708919208496809E-003;-2.390219131484628E-003;
2.408833333333334E+009;1.926455199718475E-001;3.585055842995644E-002;4.388026427477598E-003;-2.288454445078969E-003;
2.409000000000000E+009;1.916619092226028E-001;3.494333475828171E-002;4.298683721572161E-003;-2.489779610186815E-003;
2.409166666666667E+009;1.908831149339676E-001;3.399508073925972E-002;4.041890613734722E-003;-2.345782471820712E-003;
2.409333333333334E+009;1.898472905158997E-001;3.281989321112633E-002;3.930400591343641E-003;-2.388836117461324E-003;
2.409500000000000E+009;1.887132972478867E-001;3.155731037259102E-002;3.696153406053782E-003;-2.273410791531205E-003;
2.409666666666667E+009;1.877900362014771E-001;3.015238605439663E-002;3.529631998389959E-003;-1.987784868106246E-003;
2.409833333333334E+009;1.867107003927231E-001;2.881998941302300E-002;3.595309564843774E-003;-2.080308971926570E-003;
2.410000000000000E+009;1.858185231685638E-001;2.709454111754894E-002;3.517794189974666E-003;-2.021074062213302E-003;
2.410166666666667E+009;1.847855299711227E-001;2.512216754257679E-002;3.472584998235107E-003;-1.893787761218846E-003;
2.410333333333334E+009;1.838121265172958E-001;2.346469089388847E-002;3.589212428778410E-003;-1.731866621412337E-003;
2.410500000000000E+009;1.827893853187561E-001;2.157712168991566E-002;3.495152574032545E-003;-1.703076646663249E-003;
2.410666666666667E+009;1.819999217987061E-001;1.934275776147842E-002;3.564817132428289E-003;-1.561107463203371E-003;
2.410833333333334E+009;1.813143938779831E-001;1.707595773041248E-002;3.492582822218537E-003;-1.641587936319411E-003;
2.411000000000000E+009;1.804658770561218E-001;1.488430146127939E-002;3.595090005546808E-003;-1.457441947422922E-003;
2.411166666666667E+009;1.798934638500214E-001;1.262658555060625E-002;3.622035030275583E-003;-1.536748604848981E-003;
2.411333333333334E+009;1.794352233409882E-001;1.027262955904007E-002;3.631963161751628E-003;-1.504877000115812E-003;
2.411500000000000E+009;1.788341701030731E-001;7.820813916623592E-003;3.679601941257715E-003;-1.550151850096881E-003;
2.411666666666667E+009;1.787232756614685E-001;5.443719215691090E-003;3.780776401981711E-003;-1.528349588625133E-003;
2.411833333333334E+009;1.784058362245560E-001;2.920339815318584E-003;3.872684435918927E-003;-1.610716222785413E-003;
2.412000000000000E+009;1.786776036024094E-001;4.586547438520938E-004;3.970926627516747E-003;-1.540201134048402E-003;
2.412166666666667E+009;1.786473840475082E-001;-1.914199674502015E-003;3.984240349382162E-003;-1.698615029454231E-003;
2.412333333333334E+009;1.789115369319916E-001;-4.395816009491682E-003;4.054314456880093E-003;-1.779524376615882E-003;
2.412500000000000E+009;1.794213205575943E-001;-6.944726686924696E-003;4.166585858911276E-003;-1.883704215288162E-003;
2.412666666666667E+009;1.799625903367996E-001;-9.498908184468746E-003;4.130464512854815E-003;-1.955952960997820E-003;
2.412833333333334E+009;1.807183176279068E-001;-1.196138653904200E-002;4.451537039130926E-003;-2.129294909536839E-003;
2.413000000000000E+009;1.813856661319733E-001;-1.422635465860367E-002;4.473721142858267E-003;-2.198420697823167E-003;
2.413166666666667E+009;1.821578741073608E-001;-1.653796248137951E-002;4.534455481916666E-003;-2.304313704371452E-003;
2.413333333333334E+009;1.832728534936905E-001;-1.891032420098782E-002;4.809653386473656E-003;-2.565486822277308E-003;
2.413500000000000E+009;1.840042322874069E-001;-2.129083126783371E-002;4.850144963711500E-003;-2.756789792329073E-003;
2.413666666666667E+009;1.854958981275559E-001;-2.346478216350079E-002;4.792665597051382E-003;-2.993641421198845E-003;
2.413833333333334E+009;1.864608079195023E-001;-2.546535432338715E-002;4.769391380250454E-003;-3.187288530170918E-003;
2.414000000000000E+009;1.874857842922211E-001;-2.740325964987278E-002;4.827982280403376E-003;-3.530002664774656E-003;
2.414166666666667E+009;1.887940466403961E-001;-2.933034673333168E-002;4.873970523476601E-003;-3.882613033056259E-003;
2.414333333333334E+009;1.899718940258026E-001;-3.131050616502762E-002;4.689491353929043E-003;-4.053583368659020E-003;
2.414500000000000E+009;1.912719756364822E-001;-3.277062997221947E-002;4.612926393747330E-003;-4.381357226520777E-003;
2.414666666666667E+009;1.924698650836945E-001;-3.434497117996216E-002;4.627867136150599E-003;-4.864851012825966E-003;
2.414833333333334E+009;1.935897320508957E-001;-3.575519844889641E-002;4.309088923037052E-003;-5.045855883508921E-003;
2.415000000000000E+009;1.947019994258881E-001;-3.704715892672539E-002;3.927119076251984E-003;-5.111810751259327E-003;
2.415166666666667E+009;1.960563957691193E-001;-3.814769163727760E-002;3.880300093442202E-003;-5.340887699276209E-003;
2.415333333333334E+009;1.971651762723923E-001;-3.899933770298958E-002;3.579226555302739E-003;-5.571863614022732E-003;
2.415500000000000E+009;1.982778161764145E-001;-3.998559713363648E-002;3.542483784258366E-003;-5.584888625890017E-003;
2.415666666666667E+009;1.994106620550156E-001;-4.072209075093269E-002;3.249503672122955E-003;-5.837786477059126E-003;
2.415833333333334E+009;2.001510560512543E-001;-4.154435917735100E-002;3.045540302991867E-003;-5.839995108544827E-003;
2.416000000000000E+009;2.009071409702301E-001;-4.207903519272804E-002;2.695507137104869E-003;-6.005541887134314E-003;
2.416166666666667E+009;2.016646414995194E-001;-4.255834221839905E-002;2.467841142788529E-003;-6.215415429323912E-003;
2.416333333333334E+009;2.022968530654907E-001;-4.287065193057060E-002;2.331277821213007E-003;-6.302905268967152E-003;
2.416500000000000E+009;2.027442157268524E-001;-4.307590797543526E-002;2.358954399824143E-003;-6.411375477910042E-003;
2.416666666666667E+009;2.030574679374695E-001;-4.354300349950790E-002;2.007880480960012E-003;-6.325439084321261E-003;
2.416833333333334E+009;2.031527459621429E-001;-4.343766719102860E-002;1.798700774088502E-003;-6.540367379784584E-003;
2.417000000000000E+009;2.032654285430908E-001;-4.360470920801163E-002;1.332028652541339E-003;-6.658075377345085E-003;
2.417166666666667E+009;2.030466198921204E-001;-4.348923638463020E-002;1.274778507649899E-003;-6.625252775847912E-003;
2.417333333333334E+009;2.027235925197601E-001;-4.337502270936966E-002;9.741447865962982E-004;-6.801036186516285E-003;
2.417500000000000E+009;2.025463879108429E-001;-4.339550435543060E-002;6.565336952917278E-004;-6.685637868940830E-003;
2.417666666666667E+009;2.018899619579315E-001;-4.307844489812851E-002;4.878703912254423E-004;-6.775669287890196E-003;
2.417833333333334E+009;2.015312165021896E-001;-4.286962747573853E-002;2.916782686952502E-004;-6.721735931932926E-003;
2.418000000000000E+009;2.008580565452576E-001;-4.262186214327812E-002;9.176350431516767E-005;-6.728829350322485E-003;
2.418166666666667E+009;2.000119388103485E-001;-4.266669601202011E-002;-2.252121485071257E-004;-6.638416554778814E-003;
2.418333333333334E+009;1.991177201271057E-001;-4.249510914087296E-002;-4.146831925027072E-004;-6.553717888891697E-003;
2.418500000000000E+009;1.979622691869736E-001;-4.249320179224014E-002;-5.262233898974955E-004;-6.624007131904364E-003;
2.418666666666667E+009;1.971459984779358E-001;-4.244953393936157E-002;-7.819863967597485E-004;-6.505674216896296E-003;
2.418833333333334E+009;1.957786977291107E-001;-4.265113547444344E-002;-8.862107060849667E-004;-6.431620568037033E-003;
2.419000000000000E+009;1.944545805454254E-001;-4.274126514792442E-002;-1.208004192449153E-003;-6.553354673087597E-003;
2.419166666666667E+009;1.931416094303131E-001;-4.310124740004540E-002;-1.349857426248491E-003;-6.456155329942703E-003;
2.419333333333334E+009;1.915089190006256E-001;-4.364164918661118E-002;-1.550932414829731E-003;-6.348261144012213E-003;
2.419500000000000E+009;1.900635063648224E-001;-4.400829225778580E-002;-1.864448655396700E-003;-6.334551144391298E-003;
2.419666666666667E+009;1.884063333272934E-001;-4.487462341785431E-002;-1.973974285647273E-003;-6.104797124862671E-003;
2.419833333333334E+009;1.869515180587769E-001;-4.554633796215057E-002;-2.166753634810448E-003;-6.053421646356583E-003;
2.420000000000000E+009;1.852829307317734E-001;-4.634852707386017E-002;-2.307893941178918E-003;-5.857509560883045E-003;
2.420166666666667E+009;1.836434751749039E-001;-4.733930900692940E-002;-2.578313928097487E-003;-5.873071029782295E-003;
2.420333333333334E+009;1.818939000368118E-001;-4.865145310759544E-002;-2.680717967450619E-003;-5.592782981693745E-003;
2.420500000000000E+009;1.801592409610748E-001;-4.986520111560822E-002;-2.832450903952122E-003;-5.512941628694534E-003;
2.420666666666667E+009;1.785282194614410E-001;-5.097680538892746E-002;-2.798197790980339E-003;-5.507924128323793E-003;
2.420833333333334E+009;1.766938269138336E-001;-5.255705490708351E-002;-2.834784798324108E-003;-5.203360691666603E-003;
2.421000000000000E+009;1.752779930830002E-001;-5.417447909712791E-002;-3.074120730161667E-003;-5.209942348301411E-003;
2.421166666666667E+009;1.738583743572235E-001;-5.565974488854408E-002;-3.171370131894946E-003;-5.169558338820934E-003;
2.421333333333334E+009;1.721358150243759E-001;-5.728444084525108E-002;-3.288943786174059E-003;-4.938378464430571E-003;
2.421500000000000E+009;1.709673702716827E-001;-5.914852023124695E-002;-3.247719025239348E-003;-4.857948981225491E-003;
2.421666666666667E+009;1.696516424417496E-001;-6.092085689306259E-002;-3.391662845388055E-003;-4.761339165270329E-003;
2.421833333333334E+009;1.683693379163742E-001;-6.271848827600479E-002;-3.400260116904974E-003;-4.697202704846859E-003;
2.422000000000000E+009;1.671513020992279E-001;-6.473515182733536E-002;-3.677450818940997E-003;-4.626033362001181E-003;
2.422166666666667E+009;1.664544939994812E-001;-6.681144982576370E-002;-3.520684782415628E-003;-4.487101454287767E-003;
2.422333333333334E+009;1.653805226087570E-001;-6.880673766136169E-002;-3.747336333617568E-003;-4.472532309591770E-003;
2.422500000000000E+009;1.644452661275864E-001;-7.076048105955124E-002;-3.931357525289059E-003;-4.459134768694639E-003;
2.422666666666667E+009;1.638681888580322E-001;-7.277463376522064E-002;-4.168441053479910E-003;-4.182331729680300E-003;
2.422833333333334E+009;1.634074747562408E-001;-7.482948154211044E-002;-4.219091497361660E-003;-4.133477807044983E-003;
2.423000000000000E+009;1.628924161195755E-001;-7.685908675193787E-002;-4.263484384864569E-003;-3.939204383641481E-003;
2.423166666666667E+009;1.625792831182480E-001;-7.893362641334534E-002;-4.465682897716761E-003;-3.786640940234065E-003;
2.423333333333334E+009;1.624290496110916E-001;-8.090286701917648E-002;-4.625825211405754E-003;-3.723359201103449E-003;
2.423500000000000E+009;1.621464490890503E-001;-8.264385908842087E-002;-4.719740245491266E-003;-3.471793839707971E-003;
2.423666666666667E+009;1.622900813817978E-001;-8.450646698474884E-002;-4.876883700489998E-003;-3.291704459115863E-003;
2.423833333333334E+009;1.620904207229614E-001;-8.630785346031189E-002;-4.916318692266941E-003;-3.066183067858219E-003;
2.424000000000000E+009;1.622455567121506E-001;-8.822597563266754E-002;-5.098008550703526E-003;-2.761446405202150E-003;
2.424166666666667E+009;1.624246239662170E-001;-8.966191112995148E-002;-5.171461496502161E-003;-2.682853257283568E-003;
2.424333333333334E+009;1.627741008996964E-001;-9.112715721130371E-002;-5.025984253734350E-003;-2.355709671974182E-003;
2.424500000000000E+009;1.632832288742065E-001;-9.290043264627457E-002;-4.990500863641501E-003;-2.145443810150027E-003;
2.424666666666667E+009;1.634219437837601E-001;-9.416648000478745E-002;-4.903160035610199E-003;-1.908676465973258E-003;
2.424833333333334E+009;1.639598160982132E-001;-9.557913988828659E-002;-5.024303216487169E-003;-1.788647961802781E-003;
2.425000000000000E+009;1.644452512264252E-001;-9.679950773715973E-002;-4.983496852219105E-003;-1.482826424762607E-003;
2.425166666666667E+009;1.647100299596787E-001;-9.773933887481690E-002;-4.931459669023752E-003;-1.292998553253710E-003;
2.425333333333334E+009;1.651326119899750E-001;-9.888415783643723E-002;-4.892444703727961E-003;-1.247010775841773E-003;
2.425500000000000E+009;1.655835807323456E-001;-9.962893277406693E-002;-4.896358586847782E-003;-1.061709597706795E-003;
2.425666666666667E+009;1.658774018287659E-001;-1.004264131188393E-001;-4.676203709095717E-003;-9.310112800449133E-004;
2.425833333333334E+009;1.663039475679398E-001;-1.011520996689796E-001;-4.589357413351536E-003;-8.795159519650042E-004;
2.426000000000000E+009;1.668310165405273E-001;-1.016042977571487E-001;-4.455987829715014E-003;-8.658543229103088E-004;
2.426166666666667E+009;1.671706140041351E-001;-1.021258160471916E-001;-4.383454099297524E-003;-7.548136636614800E-004;
2.426333333333334E+009;1.672644913196564E-001;-1.026749685406685E-001;-4.346263129264116E-003;-6.348768947646022E-004;
2.426500000000000E+009;1.676795482635498E-001;-1.028360873460770E-001;-4.192858468741179E-003;-6.516295252367854E-004;
2.426666666666667E+009;1.679256409406662E-001;-1.032810583710671E-001;-4.169267136603594E-003;-7.878676406107843E-004;
2.426833333333334E+009;1.681575626134872E-001;-1.035084277391434E-001;-4.091239534318447E-003;-6.141167250461876E-004;
2.427000000000000E+009;1.681522428989410E-001;-1.036169603466988E-001;-4.179216455668211E-003;-6.579090841114521E-004;
2.427166666666667E+009;1.681642979383469E-001;-1.037623137235642E-001;-4.058300517499447E-003;-6.722158868797123E-004;
2.427333333333334E+009;1.681320816278458E-001;-1.040131524205208E-001;-4.046184476464987E-003;-6.515486165881157E-004;
2.427500000000000E+009;1.678179949522018E-001;-1.041064262390137E-001;-4.048708826303482E-003;-6.701463134959340E-004;
2.427666666666667E+009;1.675824373960495E-001;-1.041261553764343E-001;-4.106201231479645E-003;-5.831475136801601E-004;
