# Version 1.00
#
freq[Hz];re:Trc1_S11;im:Trc1_S11;re:Trc2_S21;im:Trc2_S21;
2.400000000000000E+009;1.553387343883514E-001;1.066015288233757E-001;1.197443227283657E-003;5.683614406734705E-003;
2.400166666666667E+009;1.549497693777084E-001;1.042488291859627E-001;1.317395479418337E-003;5.740349646657705E-003;
2.400333333333334E+009;1.549498587846756E-001;1.019915863871574E-001;1.485073356889188E-003;5.944234784692526E-003;
2.400500000000000E+009;1.549745947122574E-001;9.926376491785049E-002;1.670492230914533E-003;5.893092136830092E-003;
2.400666666666667E+009;1.547856479883194E-001;9.674353897571564E-002;1.754299737513065E-003;5.876932293176651E-003;
2.400833333333334E+009;1.549682319164276E-001;9.372020512819290E-002;1.751183415763080E-003;5.821102764457464E-003;
2.401000000000000E+009;1.550890952348709E-001;9.079735726118088E-002;1.954920589923859E-003;5.882496945559979E-003;
2.401166666666667E+009;1.551401019096375E-001;8.821830898523331E-002;2.125789644196630E-003;5.892573855817318E-003;
2.401333333333334E+009;1.555454581975937E-001;8.535458147525787E-002;2.179677831009030E-003;5.915804300457239E-003;
2.401500000000000E+009;1.559414267539978E-001;8.242591470479965E-002;2.492447150871158E-003;5.945211276412010E-003;
2.401666666666667E+009;1.561258435249329E-001;7.971139252185822E-002;2.636966062709689E-003;6.150003056973219E-003;
2.401833333333334E+009;1.567367464303970E-001;7.684281468391419E-002;2.731269923970103E-003;6.130061112344265E-003;
2.402000000000000E+009;1.575155556201935E-001;7.395304739475250E-002;2.950760070234537E-003;6.201306357979775E-003;
2.402166666666667E+009;1.583133637905121E-001;7.160778343677521E-002;3.021012060344219E-003;6.304325535893440E-003;
2.402333333333334E+009;1.591034680604935E-001;6.868020445108414E-002;3.463533939793706E-003;6.322196219116449E-003;
2.402500000000000E+009;1.604355871677399E-001;6.618858128786087E-002;3.544736420735717E-003;6.287883501499891E-003;
2.402666666666667E+009;1.614763885736466E-001;6.394048035144806E-002;4.075799603015184E-003;6.227171048521996E-003;
2.402833333333334E+009;1.627969294786453E-001;6.145007535815239E-002;4.498925525695086E-003;6.258713547140360E-003;
2.403000000000000E+009;1.643837094306946E-001;5.895221233367920E-002;4.850135184824467E-003;6.197662558406591E-003;
2.403166666666667E+009;1.658007353544235E-001;5.679742619395256E-002;5.159929860383272E-003;6.209882441908121E-003;
2.403333333333334E+009;1.672624498605728E-001;5.483861640095711E-002;5.528706125915051E-003;5.894266068935394E-003;
2.403500000000000E+009;1.689284741878510E-001;5.265802890062332E-002;5.882542114704847E-003;5.693471059203148E-003;
2.403666666666667E+009;1.707187891006470E-001;5.075332522392273E-002;6.415264215320349E-003;5.448521580547094E-003;
2.403833333333334E+009;1.721607297658920E-001;4.874175041913986E-002;6.595684215426445E-003;5.179043393582106E-003;
2.404000000000000E+009;1.736090928316116E-001;4.707739874720573E-002;6.876352243125439E-003;4.824115894734860E-003;
2.404166666666667E+009;1.755336076021195E-001;4.563739895820618E-002;7.158044259995222E-003;4.149300977587700E-003;
2.404333333333334E+009;1.771912127733231E-001;4.416582733392716E-002;7.494401186704636E-003;3.876916365697980E-003;
2.404500000000000E+009;1.788261681795120E-001;4.279321059584618E-002;7.616777904331684E-003;3.437408246099949E-003;
2.404666666666667E+009;1.804195940494537E-001;4.171955585479736E-002;7.702762261033058E-003;2.977216849103570E-003;
2.404833333333334E+009;1.821796596050263E-001;4.066758975386620E-002;7.806870155036449E-003;2.426289720460773E-003;
2.405000000000000E+009;1.833603382110596E-001;4.003065824508667E-002;7.685645017772913E-003;1.887424266897142E-003;
2.405166666666667E+009;1.848956942558289E-001;3.940512612462044E-002;7.671679835766554E-003;1.655607018619776E-003;
2.405333333333334E+009;1.863836497068405E-001;3.895582631230354E-002;7.724921219050884E-003;1.214022049680352E-003;
2.405500000000000E+009;1.878085285425186E-001;3.862769529223442E-002;7.714446168392897E-003;8.921681437641382E-004;
2.405666666666667E+009;1.889989078044891E-001;3.828733041882515E-002;7.395706139504910E-003;5.052072810940445E-004;
2.405833333333334E+009;1.903251409530640E-001;3.792957216501236E-002;7.392649538815022E-003;3.761507396120578E-004;
2.406000000000000E+009;1.914115697145462E-001;3.780386596918106E-002;7.123028393834829E-003;-1.077866691048257E-004;
2.406166666666667E+009;1.923035681247711E-001;3.774065524339676E-002;7.065922021865845E-003;-2.204009651904926E-004;
2.406333333333334E+009;1.933125257492065E-001;3.789351135492325E-002;6.948234047740698E-003;-5.260025500319898E-004;
2.406500000000000E+009;1.941027790307999E-001;3.798383474349976E-002;6.799908820539713E-003;-7.125392439775169E-004;
2.406666666666667E+009;1.948179006576538E-001;3.802844882011414E-002;6.735131144523621E-003;-9.417593828402460E-004;
2.406833333333334E+009;1.953471601009369E-001;3.809616714715958E-002;6.396504119038582E-003;-1.261577941477299E-003;
2.407000000000000E+009;1.956618279218674E-001;3.833538293838501E-002;6.365288048982620E-003;-1.289056381210685E-003;
2.407166666666667E+009;1.962243020534515E-001;3.818077966570854E-002;6.078039761632681E-003;-1.625490491278470E-003;
2.407333333333334E+009;1.962564736604691E-001;3.828211501240730E-002;6.083938758820295E-003;-1.731420517899096E-003;
2.407500000000000E+009;1.961463540792465E-001;3.853930905461311E-002;5.660018883645535E-003;-1.795646850951016E-003;
2.407666666666667E+009;1.961867213249207E-001;3.830638900399208E-002;5.525069776922464E-003;-1.873051398433745E-003;
2.407833333333334E+009;1.957515925168991E-001;3.825495764613152E-002;5.484398454427719E-003;-1.959294080734253E-003;
2.408000000000000E+009;1.957104057073593E-001;3.809429705142975E-002;5.279422271996737E-003;-1.961766276508570E-003;
2.408166666666667E+009;1.951268911361694E-001;3.780586645007134E-002;4.987987224012613E-003;-2.149431267753243E-003;
2.408333333333334E+009;1.947590410709381E-001;3.741938993334770E-002;4.886440001428127E-003;-2.191955223679543E-003;
2.408500000000000E+009;1.940951794385910E-001;3.709043934941292E-002;4.612349439412355E-003;-2.211220562458038E-003;
2.408666666666667E+009;1.934724301099777E-001;3.645509108901024E-002;4.493787884712219E-003;-2.275010570883751E-003;
2.408833333333334E+009;1.926729232072830E-001;3.574120625853539E-002;4.321475978940725E-003;-2.222412033006549E-003;
2.409000000000000E+009;1.918850094079971E-001;3.485967591404915E-002;4.096840973943472E-003;-2.421208424493671E-003;
2.409166666666667E+009;1.909160017967224E-001;3.385303542017937E-002;4.073940217494965E-003;-2.288639079779387E-003;
2.409333333333334E+009;1.900017857551575E-001;3.284918144345284E-002;3.705398412421346E-003;-2.246451098471880E-003;
2.409500000000000E+009;1.888533830642700E-001;3.166022896766663E-002;3.644231474027038E-003;-2.135463757440448E-003;
2.409666666666667E+009;1.879210323095322E-001;3.016543015837669E-002;3.516548546031117E-003;-2.138712443411350E-003;
2.409833333333334E+009;1.869800984859467E-001;2.854650467634201E-002;3.415805054828525E-003;-1.999618951231241E-003;
2.410000000000000E+009;1.858751177787781E-001;2.702337130904198E-002;3.439354244619608E-003;-1.934406929649413E-003;
2.410166666666667E+009;1.847773194313049E-001;2.517380937933922E-002;3.507599001750350E-003;-1.895642140880227E-003;
2.410333333333334E+009;1.837722063064575E-001;2.336039580404759E-002;3.363496623933315E-003;-1.628004363738000E-003;
2.410500000000000E+009;1.827664226293564E-001;2.142159827053547E-002;3.421739907935262E-003;-1.578171388246119E-003;
2.410666666666667E+009;1.820438057184219E-001;1.919852755963802E-002;3.388631856068969E-003;-1.535556395538151E-003;
2.410833333333334E+009;1.813246160745621E-001;1.693043857812882E-002;3.530828515067697E-003;-1.495674136094749E-003;
2.411000000000000E+009;1.806371062994003E-001;1.467010565102100E-002;3.575895912945271E-003;-1.503759413026273E-003;
2.411166666666667E+009;1.798678040504456E-001;1.250137016177177E-002;3.542812075465918E-003;-1.536800758913159E-003;
2.411333333333334E+009;1.795437932014465E-001;1.004979759454727E-002;3.679753281176090E-003;-1.441913773305714E-003;
2.411500000000000E+009;1.788841187953949E-001;7.470625918358564E-003;3.727380884811282E-003;-1.486264867708087E-003;
2.411666666666667E+009;1.787583082914352E-001;5.399549845606089E-003;3.830673405900598E-003;-1.367605756968260E-003;
2.411833333333334E+009;1.784413307905197E-001;2.802740782499313E-003;3.921381197869778E-003;-1.493726042099297E-003;
2.412000000000000E+009;1.786490678787231E-001;1.761968887876719E-004;3.951229155063629E-003;-1.560418168082833E-003;
2.412166666666667E+009;1.787414103746414E-001;-2.197303809225559E-003;4.109273664653301E-003;-1.569570275023580E-003;
2.412333333333334E+009;1.787937879562378E-001;-4.756735637784004E-003;4.117467906326056E-003;-1.779479323886335E-003;
2.412500000000000E+009;1.793640255928040E-001;-7.077043876051903E-003;4.274740349501371E-003;-1.769329188391566E-003;
2.412666666666667E+009;1.799031943082809E-001;-9.658196009695530E-003;4.270726349204779E-003;-1.984157133847475E-003;
2.412833333333334E+009;1.806840002536774E-001;-1.205061376094818E-002;4.503788892179728E-003;-1.962255453690887E-003;
2.413000000000000E+009;1.814300417900085E-001;-1.448398083448410E-002;4.447797313332558E-003;-2.163994126021862E-003;
2.413166666666667E+009;1.822540760040283E-001;-1.670106500387192E-002;4.639522638171911E-003;-2.462993375957012E-003;
2.413333333333334E+009;1.832127273082733E-001;-1.912106573581696E-002;4.719732329249382E-003;-2.357013290748000E-003;
2.413500000000000E+009;1.840074360370636E-001;-2.128475531935692E-002;4.728955682367086E-003;-2.650627167895436E-003;
2.413666666666667E+009;1.852688938379288E-001;-2.364958450198174E-002;4.822789691388607E-003;-3.086681477725506E-003;
2.413833333333334E+009;1.863232105970383E-001;-2.567684091627598E-002;4.923435393720865E-003;-3.073426662012935E-003;
2.414000000000000E+009;1.874934583902359E-001;-2.775292284786701E-002;5.084876436740160E-003;-3.448559436947107E-003;
2.414166666666667E+009;1.887638419866562E-001;-2.936491928994656E-002;4.813977982848883E-003;-3.796264063566923E-003;
2.414333333333334E+009;1.898236870765686E-001;-3.146315366029739E-002;4.674655850976706E-003;-4.031328484416008E-003;
2.414500000000000E+009;1.911729574203491E-001;-3.288023546338081E-002;4.638464655727148E-003;-4.398684017360210E-003;
2.414666666666667E+009;1.924002915620804E-001;-3.451490029692650E-002;4.471271298825741E-003;-4.677250050008297E-003;
2.414833333333334E+009;1.935264468193054E-001;-3.583201020956039E-002;4.265041090548039E-003;-4.745953250676394E-003;
2.415000000000000E+009;1.946952193975449E-001;-3.714498877525330E-002;4.056719597429037E-003;-5.108743440359831E-003;
2.415166666666667E+009;1.959195286035538E-001;-3.833139315247536E-002;4.001824185252190E-003;-5.398492328822613E-003;
2.415333333333334E+009;1.971395909786224E-001;-3.915254026651382E-002;3.558892756700516E-003;-5.402864888310432E-003;
2.415500000000000E+009;1.982430368661881E-001;-4.003016650676727E-002;3.563388716429472E-003;-5.595232825726271E-003;
2.415666666666667E+009;1.991431415081024E-001;-4.098540917038918E-002;3.205783898010850E-003;-5.736886523663998E-003;
2.415833333333334E+009;1.999507546424866E-001;-4.143446311354637E-002;2.945933490991592E-003;-5.864813923835754E-003;
2.416000000000000E+009;2.008334845304489E-001;-4.205267876386643E-002;2.755532739683986E-003;-5.981858819723129E-003;
2.416166666666667E+009;2.014458179473877E-001;-4.263598471879959E-002;2.547006821259856E-003;-6.160045973956585E-003;
2.416333333333334E+009;2.020532041788101E-001;-4.285198822617531E-002;2.501962240785360E-003;-6.178518757224083E-003;
2.416500000000000E+009;2.025689333677292E-001;-4.321545362472534E-002;2.156821778044105E-003;-6.219897884875536E-003;
2.416666666666667E+009;2.028108388185501E-001;-4.345548525452614E-002;2.131846733391285E-003;-6.350185722112656E-003;
2.416833333333334E+009;2.029638439416885E-001;-4.353930801153183E-002;1.770625822246075E-003;-6.327879615128040E-003;
2.417000000000000E+009;2.031166553497315E-001;-4.367712885141373E-002;1.611308893188834E-003;-6.519807502627373E-003;
2.417166666666667E+009;2.027396857738495E-001;-4.355575889348984E-002;1.248685875907540E-003;-6.587411742657423E-003;
2.417333333333334E+009;2.025979012250900E-001;-4.340215027332306E-002;1.012234599329531E-003;-6.776678841561079E-003;
2.417500000000000E+009;2.023623883724213E-001;-4.333656653761864E-002;6.782918353565037E-004;-6.738237105309963E-003;
2.417666666666667E+009;2.017386555671692E-001;-4.311539232730866E-002;4.741656302940100E-004;-6.707990076392889E-003;
2.417833333333334E+009;2.013127058744431E-001;-4.287579655647278E-002;2.824070979841054E-004;-6.587721873074770E-003;
2.418000000000000E+009;2.006095200777054E-001;-4.273428022861481E-002;6.227368430700153E-005;-6.598910316824913E-003;
2.418166666666667E+009;1.998652517795563E-001;-4.259887710213661E-002;-1.545746054034680E-004;-6.684133782982826E-003;
2.418333333333334E+009;1.989060491323471E-001;-4.253724962472916E-002;-3.710527089424431E-004;-6.652711424976587E-003;
2.418500000000000E+009;1.979246437549591E-001;-4.253180325031281E-002;-6.341577973216772E-004;-6.576648913323879E-003;
2.418666666666667E+009;1.969083994626999E-001;-4.247564077377319E-002;-8.441329700872302E-004;-6.503471173346043E-003;
2.418833333333334E+009;1.956301182508469E-001;-4.252860695123673E-002;-8.780115167610347E-004;-6.598923821002245E-003;
2.419000000000000E+009;1.942889392375946E-001;-4.270369559526444E-002;-1.173876225948334E-003;-6.413702387362719E-003;
2.419166666666667E+009;1.929364949464798E-001;-4.307781532406807E-002;-1.330961007624865E-003;-6.582017987966538E-003;
2.419333333333334E+009;1.914717704057694E-001;-4.357041046023369E-002;-1.514774980023503E-003;-6.277901120483875E-003;
2.419500000000000E+009;1.899604499340057E-001;-4.390178248286247E-002;-1.678785658441484E-003;-6.118983495980501E-003;
2.419666666666667E+009;1.884267330169678E-001;-4.480487853288651E-002;-1.864133635535836E-003;-6.117239128798246E-003;
2.419833333333334E+009;1.867479383945465E-001;-4.549783095717430E-002;-2.082210499793291E-003;-6.176416296511889E-003;
2.420000000000000E+009;1.850766688585281E-001;-4.635789990425110E-002;-2.368860645219684E-003;-5.947593599557877E-003;
2.420166666666667E+009;1.834749132394791E-001;-4.719300195574760E-002;-2.532145008444786E-003;-5.829101894050837E-003;
2.420333333333334E+009;1.817428618669510E-001;-4.847022145986557E-002;-2.586946124210954E-003;-5.763274617493153E-003;
2.420500000000000E+009;1.799765676259995E-001;-4.972567409276962E-002;-2.732397289946675E-003;-5.564187653362751E-003;
2.420666666666667E+009;1.784231215715408E-001;-5.088683590292931E-002;-2.948645502328873E-003;-5.439694505184889E-003;
2.420833333333334E+009;1.767889559268951E-001;-5.251342430710793E-002;-2.957759890705347E-003;-5.322076380252838E-003;
2.421000000000000E+009;1.752673834562302E-001;-5.392032489180565E-002;-3.065708326175809E-003;-5.063054151833057E-003;
2.421166666666667E+009;1.737949550151825E-001;-5.570723488926888E-002;-3.122687572613359E-003;-4.974352661520243E-003;
2.421333333333334E+009;1.718976497650147E-001;-5.709856748580933E-002;-3.135920036584139E-003;-4.911797121167183E-003;
2.421500000000000E+009;1.708588451147080E-001;-5.904079228639603E-002;-3.340411698445678E-003;-4.925854504108429E-003;
2.421666666666667E+009;1.696889847517014E-001;-6.084951758384705E-002;-3.320394083857536E-003;-4.797535948455334E-003;
2.421833333333334E+009;1.683372855186462E-001;-6.263622641563416E-002;-3.398024477064610E-003;-4.775054287165403E-003;
2.422000000000000E+009;1.670969724655151E-001;-6.460816413164139E-002;-3.518102224916220E-003;-4.590394441038370E-003;
2.422166666666667E+009;1.662646383047104E-001;-6.661769002676010E-002;-3.489622380584478E-003;-4.636472556740046E-003;
2.422333333333334E+009;1.652593910694122E-001;-6.862824410200119E-002;-3.692714963108301E-003;-4.533443134278059E-003;
2.422500000000000E+009;1.644945740699768E-001;-7.058998197317123E-002;-3.993306774646044E-003;-4.337544552981854E-003;
2.422666666666667E+009;1.637910157442093E-001;-7.253766059875488E-002;-3.998491913080216E-003;-4.257824271917343E-003;
2.422833333333334E+009;1.633894890546799E-001;-7.469785213470459E-002;-4.279423970729113E-003;-4.195471759885550E-003;
2.423000000000000E+009;1.627891212701798E-001;-7.672706991434097E-002;-4.290416836738586E-003;-4.188645631074905E-003;
2.423166666666667E+009;1.626982390880585E-001;-7.862222194671631E-002;-4.387306049466133E-003;-3.837198251858354E-003;
2.423333333333334E+009;1.623598933219910E-001;-8.057060092687607E-002;-4.518290050327778E-003;-3.658767323940992E-003;
2.423500000000000E+009;1.623269021511078E-001;-8.237463235855103E-002;-4.592197015881538E-003;-3.466983092948794E-003;
2.423666666666667E+009;1.623368859291077E-001;-8.439055085182190E-002;-4.739401862025261E-003;-3.321472555398941E-003;
2.423833333333334E+009;1.621743589639664E-001;-8.600018918514252E-002;-4.898769780993462E-003;-3.123594215139747E-003;
2.424000000000000E+009;1.625155657529831E-001;-8.783284574747086E-002;-4.948752000927925E-003;-2.816183492541313E-003;
2.424166666666667E+009;1.626349091529846E-001;-8.940101414918900E-002;-4.961849190294743E-003;-2.692336682230234E-003;
2.424333333333334E+009;1.627758741378784E-001;-9.099958837032318E-002;-4.887845832854509E-003;-2.410324756056070E-003;
2.424500000000000E+009;1.631813496351242E-001;-9.274858981370926E-002;-5.076003260910511E-003;-2.175777684897184E-003;
2.424666666666667E+009;1.635589003562927E-001;-9.408891201019287E-002;-5.086404271423817E-003;-2.064660191535950E-003;
2.424833333333334E+009;1.640867292881012E-001;-9.526741504669190E-002;-4.763988777995110E-003;-2.027929760515690E-003;
2.425000000000000E+009;1.644454002380371E-001;-9.660517424345017E-002;-4.828677978366613E-003;-1.533113303594291E-003;
2.425166666666667E+009;1.647837758064270E-001;-9.765505045652390E-002;-4.827103577554226E-003;-1.528458902612329E-003;
2.425333333333334E+009;1.650976389646530E-001;-9.865450859069824E-002;-4.811977036297321E-003;-1.294012181460857E-003;
2.425500000000000E+009;1.656603217124939E-001;-9.948723763227463E-002;-4.811543039977551E-003;-1.150190713815391E-003;
2.425666666666667E+009;1.660250574350357E-001;-1.002152189612389E-001;-4.701218102127314E-003;-1.094425912015140E-003;
2.425833333333334E+009;1.664207428693771E-001;-1.010352373123169E-001;-4.506077617406845E-003;-9.139425819739699E-004;
2.426000000000000E+009;1.668443977832794E-001;-1.016027033329010E-001;-4.258064553141594E-003;-6.837753462605178E-004;
2.426166666666667E+009;1.672806292772293E-001;-1.020540297031403E-001;-4.393895622342825E-003;-8.311647106893361E-004;
2.426333333333334E+009;1.674293130636215E-001;-1.025681197643280E-001;-4.284990951418877E-003;-7.163248374126852E-004;
2.426500000000000E+009;1.678695380687714E-001;-1.028780415654182E-001;-4.156451206654310E-003;-6.660911603830755E-004;
2.426666666666667E+009;1.679885685443878E-001;-1.031329259276390E-001;-4.181896802037954E-003;-7.244271691888571E-004;
2.426833333333334E+009;1.683194935321808E-001;-1.034141108393669E-001;-4.081295803189278E-003;-6.737583316862583E-004;
2.427000000000000E+009;1.682702898979187E-001;-1.036490947008133E-001;-4.065306857228279E-003;-7.550392183475196E-004;
2.427166666666667E+009;1.682599484920502E-001;-1.036523282527924E-001;-4.195624962449074E-003;-5.966388271190226E-004;
2.427333333333334E+009;1.681890934705734E-001;-1.038955599069595E-001;-4.229563288390636E-003;-5.536765675060451E-004;
2.427500000000000E+009;1.680520474910736E-001;-1.041014567017555E-001;-4.223311785608530E-003;-8.418474462814629E-004;
2.427666666666667E+009;1.676522046327591E-001;-1.040648818016052E-001;-4.203035030514002E-003;-6.255932967178524E-004;
