# Version 1.00
#
freq[Hz];re:Trc1_S11;im:Trc1_S11;re:Trc2_S21;im:Trc2_S21;
2.400000000000000E+009;1.551815271377564E-001;1.066588163375855E-001;1.388106029480696E-003;5.923750810325146E-003;
2.400166666666667E+009;1.548938602209091E-001;1.041516065597534E-001;1.280349213629961E-003;5.856166128069162E-003;
2.400333333333334E+009;1.549171805381775E-001;1.019087508320808E-001;1.511239912360907E-003;5.905548110604286E-003;
2.400500000000000E+009;1.547814160585403E-001;9.917236864566803E-002;1.685224706307054E-003;5.831010639667511E-003;
2.400666666666667E+009;1.547367870807648E-001;9.658230096101761E-002;1.692559453658760E-003;5.948500707745552E-003;
2.400833333333334E+009;1.547425091266632E-001;9.388680011034012E-002;2.013487508520484E-003;5.960559472441673E-003;
2.401000000000000E+009;1.547312140464783E-001;9.092044830322266E-002;2.110673347488046E-003;6.049416027963162E-003;
2.401166666666667E+009;1.548959165811539E-001;8.809369802474976E-002;2.211993094533682E-003;5.860503297299147E-003;
2.401333333333334E+009;1.552245169878006E-001;8.517338335514069E-002;2.316650468856096E-003;6.009144708514214E-003;
2.401500000000000E+009;1.555889397859573E-001;8.241454511880875E-002;2.460286952555180E-003;5.919022019952536E-003;
2.401666666666667E+009;1.559332311153412E-001;7.940053939819336E-002;2.644099993631244E-003;6.177291739732027E-003;
2.401833333333334E+009;1.563759148120880E-001;7.680649310350418E-002;2.886835718527436E-003;6.218770053237677E-003;
2.402000000000000E+009;1.571531295776367E-001;7.417416572570801E-002;2.957230433821678E-003;6.196580361574888E-003;
2.402166666666667E+009;1.580594033002853E-001;7.130062580108643E-002;3.326953621581197E-003;6.118271034210920E-003;
2.402333333333334E+009;1.590624898672104E-001;6.868622452020645E-002;3.598804585635662E-003;6.181219127029181E-003;
2.402500000000000E+009;1.599174141883850E-001;6.622099131345749E-002;3.772082738578320E-003;6.231670733541250E-003;
2.402666666666667E+009;1.612285226583481E-001;6.384713202714920E-002;4.109135828912258E-003;6.211251486092806E-003;
2.402833333333334E+009;1.624970436096191E-001;6.144056841731072E-002;4.453567788004875E-003;6.224446929991245E-003;
2.403000000000000E+009;1.638994812965393E-001;5.894867703318596E-002;4.772750660777092E-003;6.216200534254313E-003;
2.403166666666667E+009;1.655914187431335E-001;5.687186866998673E-002;5.183776840567589E-003;6.103638093918562E-003;
2.403333333333334E+009;1.668050140142441E-001;5.455720052123070E-002;5.573095753788948E-003;5.893735680729151E-003;
2.403500000000000E+009;1.686270087957382E-001;5.265929177403450E-002;6.105867680162191E-003;5.697373766452074E-003;
2.403666666666667E+009;1.703748703002930E-001;5.070073530077934E-002;6.569216027855873E-003;5.371307488530874E-003;
2.403833333333334E+009;1.719015091657639E-001;4.892092943191528E-002;6.776796653866768E-003;5.080352537333965E-003;
2.404000000000000E+009;1.734436452388763E-001;4.716080427169800E-002;7.203113753348589E-003;4.677594173699617E-003;
2.404166666666667E+009;1.753859817981720E-001;4.578949511051178E-002;7.298026233911514E-003;4.264282993972302E-003;
2.404333333333334E+009;1.767662167549133E-001;4.429345950484276E-002;7.630039472132921E-003;3.738063620403409E-003;
2.404500000000000E+009;1.785384118556976E-001;4.284548759460449E-002;7.749114651232958E-003;3.298698924481869E-003;
2.404666666666667E+009;1.801511645317078E-001;4.187143966555595E-002;7.865156978368759E-003;2.907591871917248E-003;
2.404833333333334E+009;1.817290782928467E-001;4.090080037713051E-002;7.995622232556343E-003;2.447676844894886E-003;
2.405000000000000E+009;1.832127869129181E-001;4.009561613202095E-002;7.862531580030918E-003;1.916587701998651E-003;
2.405166666666667E+009;1.847227364778519E-001;3.955851122736931E-002;7.950793951749802E-003;1.699640182778239E-003;
2.405333333333334E+009;1.859970688819885E-001;3.909839317202568E-002;7.748031523078680E-003;1.315296161919832E-003;
2.405500000000000E+009;1.875641793012619E-001;3.869573399424553E-002;7.611249573528767E-003;9.531058603897691E-004;
2.405666666666667E+009;1.888711005449295E-001;3.828113153576851E-002;7.534002885222435E-003;7.036478491500020E-004;
2.405833333333334E+009;1.900316774845123E-001;3.807245194911957E-002;7.440363056957722E-003;3.180683415848762E-004;
2.406000000000000E+009;1.910999417304993E-001;3.805380314588547E-002;7.431039586663246E-003;1.282377634197474E-004;
2.406166666666667E+009;1.922566294670105E-001;3.795453533530235E-002;7.126750424504280E-003;-3.554559953045100E-004;
2.406333333333334E+009;1.931374967098236E-001;3.787950798869133E-002;7.076608482748270E-003;-6.000546272844076E-004;
2.406500000000000E+009;1.939236968755722E-001;3.795263171195984E-002;6.850232835859060E-003;-6.845751777291298E-004;
2.406666666666667E+009;1.945741176605225E-001;3.808925673365593E-002;6.655651144683361E-003;-1.028841244988143E-003;
2.406833333333334E+009;1.952536106109619E-001;3.816914558410645E-002;6.542713847011328E-003;-1.165430061519146E-003;
2.407000000000000E+009;1.954131871461868E-001;3.845749050378799E-002;6.525921169668436E-003;-1.346883829683065E-003;
2.407166666666667E+009;1.958500593900681E-001;3.823062404990196E-002;6.089965812861919E-003;-1.522760139778256E-003;
2.407333333333334E+009;1.959742903709412E-001;3.840234875679016E-002;5.893301684409380E-003;-1.711318385787308E-003;
2.407500000000000E+009;1.960235685110092E-001;3.862560912966728E-002;5.848774220794439E-003;-1.851804903708398E-003;
2.407666666666667E+009;1.960681676864624E-001;3.859182074666023E-002;5.534229334443808E-003;-1.823380938731134E-003;
2.407833333333334E+009;1.954991221427918E-001;3.847019746899605E-002;5.472225137054920E-003;-1.955525949597359E-003;
2.408000000000000E+009;1.955122202634811E-001;3.840807825326920E-002;5.365702789276838E-003;-2.280350076034665E-003;
2.408166666666667E+009;1.949823647737503E-001;3.794034942984581E-002;4.908279050141573E-003;-2.192866289988160E-003;
2.408333333333334E+009;1.945544183254242E-001;3.752749413251877E-002;4.929296206682921E-003;-2.345414366573095E-003;
2.408500000000000E+009;1.937532573938370E-001;3.725163638591766E-002;4.700211342424154E-003;-2.419297350570560E-003;
2.408666666666667E+009;1.933198869228363E-001;3.668311238288879E-002;4.541125614196062E-003;-2.309435280039907E-003;
2.408833333333334E+009;1.925085783004761E-001;3.610584139823914E-002;4.363149870187044E-003;-2.344997599720955E-003;
2.409000000000000E+009;1.916660219430924E-001;3.511288389563561E-002;4.246608819812536E-003;-2.373108407482505E-003;
2.409166666666667E+009;1.907717287540436E-001;3.415037319064140E-002;4.170695785433054E-003;-2.343736588954926E-003;
2.409333333333334E+009;1.898673027753830E-001;3.311654180288315E-002;3.825248219072819E-003;-2.432901412248612E-003;
2.409500000000000E+009;1.887222230434418E-001;3.180408105254173E-002;3.721878863871098E-003;-2.196069573983550E-003;
2.409666666666667E+009;1.877859383821487E-001;3.044197149574757E-002;3.757509170100093E-003;-2.167624887079001E-003;
2.409833333333334E+009;1.868371218442917E-001;2.909375727176666E-002;3.521773498505354E-003;-2.117816125974059E-003;
2.410000000000000E+009;1.858562827110291E-001;2.745419926941395E-002;3.423029091209173E-003;-1.956074731424451E-003;
2.410166666666667E+009;1.847137510776520E-001;2.551247552037239E-002;3.421036526560783E-003;-1.882051583379507E-003;
2.410333333333334E+009;1.837559193372726E-001;2.376870624721050E-002;3.387940116226673E-003;-1.817983924411237E-003;
2.410500000000000E+009;1.826922297477722E-001;2.184147574007511E-002;3.517776727676392E-003;-1.645601354539394E-003;
2.410666666666667E+009;1.819072365760803E-001;1.945098489522934E-002;3.406294854357839E-003;-1.670351950451732E-003;
2.410833333333334E+009;1.812760680913925E-001;1.738119684159756E-002;3.503763349726796E-003;-1.732652890495956E-003;
2.411000000000000E+009;1.805160045623779E-001;1.509861834347248E-002;3.591917222365737E-003;-1.519444282166660E-003;
2.411166666666667E+009;1.797513514757156E-001;1.284551154822111E-002;3.548123640939593E-003;-1.642953953705728E-003;
2.411333333333334E+009;1.794833987951279E-001;1.037375442683697E-002;3.683819435536861E-003;-1.379467779770494E-003;
2.411500000000000E+009;1.789090484380722E-001;7.967098616063595E-003;3.827334847301245E-003;-1.433372497558594E-003;
2.411666666666667E+009;1.788321584463120E-001;5.588185973465443E-003;3.651245031505823E-003;-1.581621589139104E-003;
2.411833333333334E+009;1.783673167228699E-001;3.202653024345636E-003;3.778352867811918E-003;-1.560430740937591E-003;
2.412000000000000E+009;1.786085069179535E-001;5.680548492819071E-004;4.044552799314261E-003;-1.712566241621971E-003;
2.412166666666667E+009;1.787503063678742E-001;-1.795215299353004E-003;4.024434369057417E-003;-1.684681512415409E-003;
2.412333333333334E+009;1.789084225893021E-001;-4.132538102567196E-003;3.992943558841944E-003;-1.715474878437817E-003;
2.412500000000000E+009;1.795219928026199E-001;-6.697741802781820E-003;4.126472864300013E-003;-1.868042512796819E-003;
2.412666666666667E+009;1.800138503313065E-001;-9.184777736663818E-003;4.360874649137259E-003;-1.888326019980013E-003;
2.412833333333334E+009;1.806714981794357E-001;-1.175384037196636E-002;4.409170243889093E-003;-2.053672913461924E-003;
2.413000000000000E+009;1.813679784536362E-001;-1.398734189569950E-002;4.451377317309380E-003;-2.240513218566775E-003;
2.413166666666667E+009;1.822659969329834E-001;-1.634024828672409E-002;4.533258732408285E-003;-2.248189644888043E-003;
2.413333333333334E+009;1.832727491855621E-001;-1.873403601348400E-002;4.540450870990753E-003;-2.578823594376445E-003;
2.413500000000000E+009;1.842578053474426E-001;-2.093853056430817E-002;4.804123193025589E-003;-2.709021093323827E-003;
2.413666666666667E+009;1.854937672615051E-001;-2.327917143702507E-002;4.791354760527611E-003;-2.869355725124478E-003;
2.413833333333334E+009;1.865464895963669E-001;-2.529595606029034E-002;4.789702128618956E-003;-3.128047799691558E-003;
2.414000000000000E+009;1.875313073396683E-001;-2.729804441332817E-002;4.970326554030180E-003;-3.490884788334370E-003;
2.414166666666667E+009;1.890190094709396E-001;-2.908655256032944E-002;4.745390266180039E-003;-3.741079242900014E-003;
2.414333333333334E+009;1.901154071092606E-001;-3.102153353393078E-002;4.651966504752636E-003;-4.049276933073998E-003;
2.414500000000000E+009;1.913302689790726E-001;-3.264443203806877E-002;4.613340832293034E-003;-4.379912745207548E-003;
2.414666666666667E+009;1.926860809326172E-001;-3.428497537970543E-002;4.347478505223990E-003;-4.826846998184919E-003;
2.414833333333334E+009;1.937389671802521E-001;-3.559759259223938E-002;4.176538437604904E-003;-4.947622772306204E-003;
2.415000000000000E+009;1.947416812181473E-001;-3.676502034068108E-002;3.988300915807486E-003;-5.086733028292656E-003;
2.415166666666667E+009;1.961899548768997E-001;-3.801767900586128E-002;3.900473006069660E-003;-5.341479089111090E-003;
2.415333333333334E+009;1.971736103296280E-001;-3.901685401797295E-002;3.510023932904005E-003;-5.506435874849558E-003;
2.415500000000000E+009;1.982411742210388E-001;-3.970713913440704E-002;3.404229413717985E-003;-5.761911161243916E-003;
2.415666666666667E+009;1.992738693952560E-001;-4.059192538261414E-002;3.291444852948189E-003;-5.794418510049582E-003;
2.415833333333334E+009;2.002067267894745E-001;-4.123249277472496E-002;3.083634655922651E-003;-5.867749452590942E-003;
2.416000000000000E+009;2.009494751691818E-001;-4.178933426737785E-002;2.701836870983243E-003;-5.983110982924700E-003;
2.416166666666667E+009;2.017173022031784E-001;-4.235448315739632E-002;2.601626096293330E-003;-6.108601111918688E-003;
2.416333333333334E+009;2.022911608219147E-001;-4.250464215874672E-002;2.451756736263633E-003;-6.303276401013136E-003;
2.416500000000000E+009;2.027907520532608E-001;-4.297823086380959E-002;2.230406971648336E-003;-6.261004135012627E-003;
2.416666666666667E+009;2.031525522470474E-001;-4.317590594291687E-002;1.973045757040381E-003;-6.474869791418314E-003;
2.416833333333334E+009;2.032795250415802E-001;-4.331721365451813E-002;1.704210182651877E-003;-6.544779520481825E-003;
2.417000000000000E+009;2.033813893795013E-001;-4.339091479778290E-002;1.558767631649971E-003;-6.664942484349012E-003;
2.417166666666667E+009;2.030588388442993E-001;-4.323862865567207E-002;1.223709085024893E-003;-6.545410491526127E-003;
2.417333333333334E+009;2.029879838228226E-001;-4.307904839515686E-002;9.151247213594616E-004;-6.548943463712931E-003;
2.417500000000000E+009;2.025999277830124E-001;-4.310217499732971E-002;7.433020509779453E-004;-6.654215976595879E-003;
2.417666666666667E+009;2.021464854478836E-001;-4.286922141909599E-002;3.652567975223064E-004;-6.705566775053740E-003;
2.417833333333334E+009;2.016126662492752E-001;-4.273591190576553E-002;1.768564252415672E-004;-6.789253093302250E-003;
2.418000000000000E+009;2.010663449764252E-001;-4.248234257102013E-002;2.075690281344578E-004;-6.621021311730146E-003;
2.418166666666667E+009;2.001466602087021E-001;-4.242109507322311E-002;-5.345386307453737E-005;-6.533852312713862E-003;
2.418333333333334E+009;1.991825252771378E-001;-4.231047257781029E-002;-2.225150965387002E-004;-6.612125318497419E-003;
2.418500000000000E+009;1.982603371143341E-001;-4.233504086732864E-002;-4.933736054226756E-004;-6.628999952226877E-003;
2.418666666666667E+009;1.972952783107758E-001;-4.226592183113098E-002;-7.346306811086834E-004;-6.524813361465931E-003;
2.418833333333334E+009;1.959955841302872E-001;-4.247407987713814E-002;-8.813031599856913E-004;-6.456104107201099E-003;
2.419000000000000E+009;1.946760416030884E-001;-4.283710569143295E-002;-1.140761421993375E-003;-6.398368161171675E-003;
2.419166666666667E+009;1.933969259262085E-001;-4.293970018625259E-002;-1.279849326238036E-003;-6.356563419103622E-003;
2.419333333333334E+009;1.917946189641953E-001;-4.349895939230919E-002;-1.477981917560101E-003;-6.215704604983330E-003;
2.419500000000000E+009;1.904544085264206E-001;-4.396992549300194E-002;-1.687931246124208E-003;-6.245437078177929E-003;
2.419666666666667E+009;1.886644512414932E-001;-4.472241550683975E-002;-1.946723205037415E-003;-6.016741041094065E-003;
2.419833333333334E+009;1.871268451213837E-001;-4.541303962469101E-002;-2.116911811754108E-003;-6.202956195920706E-003;
2.420000000000000E+009;1.854609549045563E-001;-4.639586806297302E-002;-2.215230371803045E-003;-6.044041365385056E-003;
2.420166666666667E+009;1.839108020067215E-001;-4.721478372812271E-002;-2.554652281105518E-003;-5.919220857322216E-003;
2.420333333333334E+009;1.821592599153519E-001;-4.852396994829178E-002;-2.650898182764649E-003;-5.646693520247936E-003;
2.420500000000000E+009;1.804268658161163E-001;-4.979970678687096E-002;-2.713584806770086E-003;-5.683257244527340E-003;
2.420666666666667E+009;1.787717789411545E-001;-5.094420537352562E-002;-2.922141691669822E-003;-5.454524420201778E-003;
2.420833333333334E+009;1.771109998226166E-001;-5.233362689614296E-002;-3.115755971521139E-003;-5.148993805050850E-003;
2.421000000000000E+009;1.756999045610428E-001;-5.414091795682907E-002;-3.032675478607416E-003;-5.220822989940643E-003;
2.421166666666667E+009;1.743386834859848E-001;-5.564665049314499E-002;-3.061785595491529E-003;-5.076307337731123E-003;
2.421333333333334E+009;1.725389212369919E-001;-5.723441019654274E-002;-3.212058916687965E-003;-4.878470208495855E-003;
2.421500000000000E+009;1.711864769458771E-001;-5.905149132013321E-002;-3.222863189876080E-003;-4.855214618146420E-003;
2.421666666666667E+009;1.699648499488831E-001;-6.098235398530960E-002;-3.398184198886156E-003;-4.826085176318884E-003;
2.421833333333334E+009;1.686537712812424E-001;-6.288917362689972E-002;-3.519940190017223E-003;-4.728034604340792E-003;
2.422000000000000E+009;1.675267219543457E-001;-6.473688036203384E-002;-3.471531905233860E-003;-4.622078035026789E-003;
2.422166666666667E+009;1.667265295982361E-001;-6.681898981332779E-002;-3.674448467791081E-003;-4.555889870971441E-003;
2.422333333333334E+009;1.656335741281509E-001;-6.895902007818222E-002;-3.774958429858089E-003;-4.522405099123716E-003;
2.422500000000000E+009;1.647729426622391E-001;-7.087609916925430E-002;-3.951483406126499E-003;-4.456920083612204E-003;
2.422666666666667E+009;1.642512828111649E-001;-7.282667607069016E-002;-4.108865279704332E-003;-4.167636856436729E-003;
2.422833333333334E+009;1.637208461761475E-001;-7.474263757467270E-002;-4.285698290914297E-003;-4.274477250874043E-003;
2.423000000000000E+009;1.630248129367828E-001;-7.697701454162598E-002;-4.360469058156014E-003;-3.955508116632700E-003;
2.423166666666667E+009;1.627442389726639E-001;-7.902298122644424E-002;-4.633313976228237E-003;-3.794166259467602E-003;
2.423333333333334E+009;1.626012772321701E-001;-8.097657561302185E-002;-4.775245208293200E-003;-3.638233523815870E-003;
2.423500000000000E+009;1.625537425279617E-001;-8.262666314840317E-002;-4.819271154701710E-003;-3.377496264874935E-003;
2.423666666666667E+009;1.627420783042908E-001;-8.462198823690414E-002;-4.947599023580551E-003;-3.212128300219774E-003;
2.423833333333334E+009;1.623944491147995E-001;-8.637095242738724E-002;-4.992974456399679E-003;-3.139493986964226E-003;
2.424000000000000E+009;1.626482009887695E-001;-8.819246292114258E-002;-5.068746861070395E-003;-2.778465393930674E-003;
2.424166666666667E+009;1.627846509218216E-001;-8.977378904819489E-002;-5.012018606066704E-003;-2.631970914080739E-003;
2.424333333333334E+009;1.631965637207031E-001;-9.131617099046707E-002;-4.996823612600565E-003;-2.434512833133340E-003;
2.424500000000000E+009;1.634023487567902E-001;-9.316747635602951E-002;-5.097023211419582E-003;-2.281670924276114E-003;
2.424666666666667E+009;1.636864244937897E-001;-9.441034495830536E-002;-4.999934229999781E-003;-1.980654196813703E-003;
2.424833333333334E+009;1.642570197582245E-001;-9.569626301527023E-002;-4.944400396198034E-003;-1.866974751465023E-003;
2.425000000000000E+009;1.645719558000565E-001;-9.683455526828766E-002;-4.857918247580528E-003;-1.498931320384145E-003;
2.425166666666667E+009;1.650928705930710E-001;-9.795197099447250E-002;-4.875808954238892E-003;-1.392589765600860E-003;
2.425333333333334E+009;1.653881371021271E-001;-9.900886565446854E-002;-4.717964213341475E-003;-1.221210812218487E-003;
2.425500000000000E+009;1.658812463283539E-001;-9.993796795606613E-002;-4.714181181043387E-003;-1.084591262042522E-003;
2.425666666666667E+009;1.662834435701370E-001;-1.005764156579971E-001;-4.561215173453093E-003;-1.098166336305440E-003;
2.425833333333334E+009;1.665419042110443E-001;-1.014034226536751E-001;-4.541039001196623E-003;-9.778783423826098E-004;
2.426000000000000E+009;1.670114696025848E-001;-1.019380688667297E-001;-4.439951851963997E-003;-8.777643088251352E-004;
2.426166666666667E+009;1.674280613660812E-001;-1.023173555731773E-001;-4.275240469723940E-003;-8.237030706368387E-004;
2.426333333333334E+009;1.675079762935638E-001;-1.028988510370255E-001;-4.302935209125280E-003;-7.938798516988754E-004;
2.426500000000000E+009;1.678972244262695E-001;-1.031171679496765E-001;-4.271472338587046E-003;-7.853750721551478E-004;
2.426666666666667E+009;1.682064831256867E-001;-1.034388467669487E-001;-4.091646522283554E-003;-8.464945713058114E-004;
2.426833333333334E+009;1.684163063764572E-001;-1.036871671676636E-001;-4.156731069087982E-003;-7.927179103717208E-004;
2.427000000000000E+009;1.684661656618118E-001;-1.039596274495125E-001;-4.135136958211660E-003;-7.188922609202564E-004;
2.427166666666667E+009;1.683869808912277E-001;-1.039140895009041E-001;-4.073171410709620E-003;-6.107207736931741E-004;
2.427333333333334E+009;1.683525592088699E-001;-1.042444184422493E-001;-3.994527272880077E-003;-8.172227535396814E-004;
2.427500000000000E+009;1.679672896862030E-001;-1.044505164027214E-001;-4.262539558112621E-003;-5.205366760492325E-004;
2.427666666666667E+009;1.676625460386276E-001;-1.043578088283539E-001;-4.078292753547430E-003;-6.508124060928822E-004;
