# Version 1.00
#
freq[Hz];re:Trc1_S11;im:Trc1_S11;re:Trc2_S21;im:Trc2_S21;
2.400000000000000E+009;1.735398173332214E-001;4.962884262204170E-002;3.781216917559505E-003;5.872213281691074E-003;
2.400166666666667E+009;1.740206331014633E-001;4.906381666660309E-002;3.941150847822428E-003;5.617065355181694E-003;
2.400333333333334E+009;1.745087504386902E-001;4.827645421028137E-002;4.204318858683109E-003;5.351501051336527E-003;
2.400500000000000E+009;1.747830063104630E-001;4.782603681087494E-002;4.164131358265877E-003;5.123682320117950E-003;
2.400666666666667E+009;1.750932037830353E-001;4.696175083518028E-002;4.383389372378588E-003;5.022009368985891E-003;
2.400833333333334E+009;1.753988564014435E-001;4.647143557667732E-002;4.532407969236374E-003;4.680942744016647E-003;
2.401000000000000E+009;1.755244880914688E-001;4.576954990625382E-002;4.603701643645763E-003;4.434253554791212E-003;
2.401166666666667E+009;1.755087226629257E-001;4.510215297341347E-002;4.793519154191017E-003;4.136274568736553E-003;
2.401333333333334E+009;1.756131649017334E-001;4.426828771829605E-002;4.893835633993149E-003;4.185242112725973E-003;
2.401500000000000E+009;1.756975352764130E-001;4.363835230469704E-002;4.998445045202971E-003;3.951876889914274E-003;
2.401666666666667E+009;1.756300777196884E-001;4.274260625243187E-002;5.041550844907761E-003;3.770108567550778E-003;
2.401833333333334E+009;1.752952337265015E-001;4.205847159028053E-002;5.081896204501391E-003;3.500062273815274E-003;
2.402000000000000E+009;1.751973778009415E-001;4.110739380121231E-002;5.150210577994585E-003;3.197001293301582E-003;
2.402166666666667E+009;1.749941110610962E-001;4.014891386032105E-002;5.153325386345387E-003;2.883393783122301E-003;
2.402333333333334E+009;1.746033281087875E-001;3.914940729737282E-002;5.321490112692118E-003;2.734572160989046E-003;
2.402500000000000E+009;1.746571063995361E-001;3.811181336641312E-002;5.281176883727312E-003;2.462618751451373E-003;
2.402666666666667E+009;1.744227260351181E-001;3.697312250733376E-002;5.205525550991297E-003;2.181794960051775E-003;
2.402833333333334E+009;1.740015447139740E-001;3.580887243151665E-002;5.340898875147104E-003;1.870971289463341E-003;
2.403000000000000E+009;1.736932098865509E-001;3.447764366865158E-002;5.199117120355368E-003;1.700389548204839E-003;
2.403166666666667E+009;1.733126491308212E-001;3.307017683982849E-002;5.108186975121498E-003;1.406750641763210E-003;
2.403333333333334E+009;1.729534566402435E-001;3.165629133582115E-002;5.217066500335932E-003;1.293795183300972E-003;
2.403500000000000E+009;1.725761741399765E-001;3.012865222990513E-002;4.942161031067371E-003;9.492387180216610E-004;
2.403666666666667E+009;1.720577925443649E-001;2.846186049282551E-002;4.976993892341852E-003;9.111761464737356E-004;
2.403833333333334E+009;1.716243028640747E-001;2.663069963455200E-002;4.716854076832533E-003;7.509398274123669E-004;
2.404000000000000E+009;1.714444160461426E-001;2.487638220191002E-002;4.655814263969660E-003;7.155626663006842E-004;
2.404166666666667E+009;1.710300743579865E-001;2.299005538225174E-002;4.496841691434383E-003;4.863796639256179E-004;
2.404333333333334E+009;1.707075685262680E-001;2.117980271577835E-002;4.534337669610977E-003;3.871851076837629E-004;
2.404500000000000E+009;1.704174280166626E-001;1.910789310932159E-002;4.413359798491001E-003;5.656046414515004E-005;
2.404666666666667E+009;1.701667755842209E-001;1.727914437651634E-002;4.233475774526596E-003;1.235062227351591E-004;
2.404833333333334E+009;1.700962483882904E-001;1.520344801247120E-002;4.132828209549189E-003;2.512388709874358E-005;
2.405000000000000E+009;1.699036955833435E-001;1.326229050755501E-002;4.049449227750301E-003;-1.932558661792427E-004;
2.405166666666667E+009;1.698429286479950E-001;1.113513950258493E-002;4.035524092614651E-003;2.526165371818934E-005;
2.405333333333334E+009;1.699760109186173E-001;9.179509244859219E-003;3.710299963131547E-003;-1.716898987069726E-005;
2.405500000000000E+009;1.700419187545776E-001;6.950865965336561E-003;3.838637610897422E-003;1.673154292802792E-005;
2.405666666666667E+009;1.702428609132767E-001;4.941844381392002E-003;3.660572227090597E-003;7.112985622370616E-005;
2.405833333333334E+009;1.702798753976822E-001;3.048034384846687E-003;3.535482799634337E-003;2.759334747679532E-004;
2.406000000000000E+009;1.707914769649506E-001;9.170059347525239E-004;3.535046940669417E-003;4.819201058126055E-005;
2.406166666666667E+009;1.708140224218369E-001;-1.073938445188105E-003;3.558096475899220E-003;2.798330970108509E-004;
2.406333333333334E+009;1.715288311243057E-001;-3.031776053830981E-003;3.662511939182878E-003;3.317942610010505E-004;
2.406500000000000E+009;1.719493269920349E-001;-5.110202822834253E-003;3.640247974544764E-003;3.676472988445312E-004;
2.406666666666667E+009;1.722052693367004E-001;-7.011114619672298E-003;3.928781487047672E-003;3.128600947093219E-004;
2.406833333333334E+009;1.730879247188568E-001;-8.974589407444000E-003;3.984551411122084E-003;1.937892666319385E-004;
2.407000000000000E+009;1.736808866262436E-001;-1.083344034850597E-002;3.989840392023325E-003;1.458959886804223E-004;
2.407166666666667E+009;1.743923872709274E-001;-1.260184124112129E-002;4.144555423408747E-003;1.361152681056410E-004;
2.407333333333334E+009;1.749723255634308E-001;-1.454635523259640E-002;4.391275811940432E-003;5.385596887208521E-005;
2.407500000000000E+009;1.757307052612305E-001;-1.631172932684422E-002;4.504552111029625E-003;-1.967533753486350E-004;
2.407666666666667E+009;1.765345484018326E-001;-1.788009516894817E-002;4.601092543452978E-003;-3.772837808355689E-004;
2.407833333333334E+009;1.771768927574158E-001;-1.965669542551041E-002;4.753873217850924E-003;-4.265060706529766E-004;
2.408000000000000E+009;1.779872328042984E-001;-2.108506672084332E-002;4.704318009316921E-003;-7.859893958084285E-004;
2.408166666666667E+009;1.786359995603561E-001;-2.248886227607727E-002;4.915404133498669E-003;-1.064379466697574E-003;
2.408333333333334E+009;1.795211434364319E-001;-2.397673390805721E-002;4.789506550878286E-003;-1.274529146030545E-003;
2.408500000000000E+009;1.799689084291458E-001;-2.526046894490719E-002;4.841419868171215E-003;-1.792203751392663E-003;
2.408666666666667E+009;1.806255131959915E-001;-2.647008746862412E-002;4.863211419433355E-003;-1.790282782167196E-003;
2.408833333333334E+009;1.810737401247025E-001;-2.753971517086029E-002;4.803945310413837E-003;-2.079646801576018E-003;
2.409000000000000E+009;1.814351677894592E-001;-2.845692634582520E-002;4.716932773590088E-003;-2.313183154910803E-003;
2.409166666666667E+009;1.820083707571030E-001;-2.938156388700008E-002;4.453693982213736E-003;-2.574333455413580E-003;
2.409333333333334E+009;1.823146343231201E-001;-3.025089204311371E-002;4.435085225850344E-003;-2.740740310400724E-003;
2.409500000000000E+009;1.827644705772400E-001;-3.113860264420509E-002;4.136594943702221E-003;-2.936727134510875E-003;
2.409666666666667E+009;1.829277426004410E-001;-3.153191134333611E-002;4.068589769303799E-003;-3.111931262537837E-003;
2.409833333333334E+009;1.829837411642075E-001;-3.184270486235619E-002;3.691295161843300E-003;-3.179610008373857E-003;
2.410000000000000E+009;1.835288107395172E-001;-3.230940923094750E-002;3.524998668581247E-003;-3.463337663561106E-003;
2.410166666666667E+009;1.835000663995743E-001;-3.286116570234299E-002;3.392843762412667E-003;-3.578118747100234E-003;
2.410333333333334E+009;1.834028810262680E-001;-3.300453722476959E-002;3.229720052331686E-003;-3.656100016087294E-003;
2.410500000000000E+009;1.835670918226242E-001;-3.343052044510841E-002;2.986630890518427E-003;-3.724792506545782E-003;
2.410666666666667E+009;1.835411936044693E-001;-3.367428854107857E-002;2.963267266750336E-003;-3.802821971476078E-003;
2.410833333333334E+009;1.833694428205490E-001;-3.395092859864235E-002;2.744171535596252E-003;-3.777977079153061E-003;
2.411000000000000E+009;1.830350011587143E-001;-3.411793708801270E-002;2.456905785948038E-003;-3.896631067618728E-003;
2.411166666666667E+009;1.826763749122620E-001;-3.443880751729012E-002;2.157004317268729E-003;-3.801505314186215E-003;
2.411333333333334E+009;1.822206228971481E-001;-3.461672365665436E-002;2.125383587554097E-003;-3.949325531721115E-003;
2.411500000000000E+009;1.815826743841171E-001;-3.527930751442909E-002;1.744660316035152E-003;-4.012012854218483E-003;
2.411666666666667E+009;1.813088953495026E-001;-3.558746725320816E-002;1.547811087220907E-003;-4.214718006551266E-003;
2.411833333333334E+009;1.803708672523499E-001;-3.588496521115303E-002;1.415413687936962E-003;-4.052396398037672E-003;
2.412000000000000E+009;1.797842234373093E-001;-3.633463755249977E-002;1.217668177559972E-003;-4.073498770594597E-003;
2.412166666666667E+009;1.787174046039581E-001;-3.675314411520958E-002;1.062767230905592E-003;-3.972013946622610E-003;
2.412333333333334E+009;1.780094802379608E-001;-3.739991039037705E-002;9.006544714793563E-004;-3.941074945032597E-003;
2.412500000000000E+009;1.766982674598694E-001;-3.777072951197624E-002;6.677701603621244E-004;-3.789189504459500E-003;
2.412666666666667E+009;1.756239980459213E-001;-3.862407431006432E-002;7.884297519922257E-004;-3.820460289716721E-003;
2.412833333333334E+009;1.746487319469452E-001;-3.957955539226532E-002;3.535390424076468E-004;-3.739438718184829E-003;
2.413000000000000E+009;1.734350919723511E-001;-4.007347300648689E-002;2.088546316372231E-004;-3.760894527658820E-003;
2.413166666666667E+009;1.720143854618073E-001;-4.095914587378502E-002;8.545687160221860E-005;-3.360902890563011E-003;
2.413333333333334E+009;1.707058995962143E-001;-4.208866134285927E-002;-1.028972110361792E-005;-3.398027736693621E-003;
2.413500000000000E+009;1.694866567850113E-001;-4.311549663543701E-002;1.428074756404385E-005;-3.204164328053594E-003;
2.413666666666667E+009;1.683226227760315E-001;-4.417764768004417E-002;-6.541097536683083E-005;-3.044064622372389E-003;
2.413833333333334E+009;1.668949276208878E-001;-4.530618712306023E-002;-1.880001509562135E-004;-2.953117480501533E-003;
2.414000000000000E+009;1.656553447246552E-001;-4.657159000635147E-002;-1.559033407829702E-004;-2.845151349902153E-003;
2.414166666666667E+009;1.645397990942001E-001;-4.791866987943649E-002;-1.536091876914725E-004;-2.607712056487799E-003;
2.414333333333334E+009;1.631444394588471E-001;-4.934822022914887E-002;-1.587029400980100E-004;-2.501699607819319E-003;
2.414500000000000E+009;1.623783111572266E-001;-5.080040544271469E-002;-3.710853707161732E-005;-2.324445871636272E-003;
2.414666666666667E+009;1.610115915536881E-001;-5.228840187191963E-002;-1.366574579151347E-004;-2.347395755350590E-003;
2.414833333333334E+009;1.599599421024323E-001;-5.408667400479317E-002;1.953030914592091E-005;-2.229544334113598E-003;
2.415000000000000E+009;1.589028537273407E-001;-5.582148209214211E-002;-2.822504029609263E-005;-2.044186694547534E-003;
2.415166666666667E+009;1.581318974494934E-001;-5.759821459650993E-002;1.049135535140522E-004;-2.244312316179276E-003;
2.415333333333334E+009;1.572489887475967E-001;-5.954224243760109E-002;1.699790591374040E-004;-2.117485739290714E-003;
2.415500000000000E+009;1.565416902303696E-001;-6.118054315447807E-002;1.594077330082655E-004;-2.158165210857987E-003;
2.415666666666667E+009;1.557670086622238E-001;-6.309393048286438E-002;4.756686103064567E-004;-2.225306583568454E-003;
2.415833333333334E+009;1.552411317825317E-001;-6.505794078111649E-002;3.741090768016875E-004;-2.275389153510332E-003;
2.416000000000000E+009;1.544204205274582E-001;-6.705339252948761E-002;4.074896860402077E-004;-2.235691063106060E-003;
2.416166666666667E+009;1.541216969490051E-001;-6.900897622108460E-002;5.297595635056496E-004;-2.483858494088054E-003;
2.416333333333334E+009;1.537060737609863E-001;-7.101111114025116E-002;4.361994797363877E-004;-2.450003521516919E-003;
2.416500000000000E+009;1.532014906406403E-001;-7.305094599723816E-002;6.368940812535584E-004;-2.504458650946617E-003;
2.416666666666667E+009;1.528753787279129E-001;-7.487821578979492E-002;7.121966918930411E-004;-2.623115899041295E-003;
2.416833333333334E+009;1.527426093816757E-001;-7.698630541563034E-002;5.454286001622677E-004;-2.757638692855835E-003;
2.417000000000000E+009;1.523921787738800E-001;-7.895258069038391E-002;5.655137356370688E-004;-2.996728057041764E-003;
2.417166666666667E+009;1.522848457098007E-001;-8.063098788261414E-002;4.649541224353015E-004;-3.008741652593017E-003;
2.417333333333334E+009;1.522482186555862E-001;-8.233431726694107E-002;5.295540322549641E-004;-3.198182210326195E-003;
2.417500000000000E+009;1.521761119365692E-001;-8.418115973472595E-002;4.114623588975519E-004;-3.265869803726673E-003;
2.417666666666667E+009;1.523326337337494E-001;-8.575685322284699E-002;1.706845796434209E-004;-3.528399392962456E-003;
2.417833333333334E+009;1.523528844118118E-001;-8.704968541860580E-002;1.771763054421172E-004;-3.519207471981645E-003;
2.418000000000000E+009;1.523530930280685E-001;-8.872484415769577E-002;-8.080073166638613E-005;-3.661038354039192E-003;
2.418166666666667E+009;1.524043083190918E-001;-8.985862880945206E-002;-1.663775183260441E-004;-3.762354841455817E-003;
2.418333333333334E+009;1.528851985931397E-001;-9.115522354841232E-002;-3.970002871938050E-004;-3.814368275925517E-003;
2.418500000000000E+009;1.528838425874710E-001;-9.221297502517700E-002;-6.647632108069956E-004;-3.982835914939642E-003;
2.418666666666667E+009;1.531455814838409E-001;-9.334436058998108E-002;-8.986544562503696E-004;-3.789492417126894E-003;
2.418833333333334E+009;1.532534658908844E-001;-9.413263201713562E-002;-9.937074501067400E-004;-3.856938565149903E-003;
2.419000000000000E+009;1.532768905162811E-001;-9.493166208267212E-002;-1.025798846967518E-003;-3.880162024870515E-003;
2.419166666666667E+009;1.536543667316437E-001;-9.558358043432236E-002;-1.439229934476316E-003;-3.680943744257093E-003;
2.419333333333334E+009;1.538023054599762E-001;-9.581336379051209E-002;-1.558383577503264E-003;-3.627646481618285E-003;
2.419500000000000E+009;1.540624946355820E-001;-9.664572030305862E-002;-1.867552171461284E-003;-3.532022936269641E-003;
2.419666666666667E+009;1.543022692203522E-001;-9.680356830358505E-002;-1.833606860600412E-003;-3.589213127270341E-003;
2.419833333333334E+009;1.542818993330002E-001;-9.688276797533035E-002;-1.847050269134343E-003;-3.494454547762871E-003;
2.420000000000000E+009;1.545541733503342E-001;-9.710912406444550E-002;-2.232689876109362E-003;-3.261212958022952E-003;
2.420166666666667E+009;1.545898020267487E-001;-9.700341522693634E-002;-2.116171643137932E-003;-3.157451283186674E-003;
2.420333333333334E+009;1.545139998197556E-001;-9.704232960939407E-002;-2.317193895578384E-003;-3.236281452700496E-003;
2.420500000000000E+009;1.546163558959961E-001;-9.677512943744659E-002;-2.422188874334097E-003;-3.185755107551813E-003;
2.420666666666667E+009;1.544894874095917E-001;-9.658850729465485E-002;-2.519708359614015E-003;-3.109287703409791E-003;
2.420833333333334E+009;1.544565707445145E-001;-9.633176028728485E-002;-2.622398314997554E-003;-2.975219162181020E-003;
2.421000000000000E+009;1.541300117969513E-001;-9.603314846754074E-002;-2.817035885527730E-003;-2.866100752726197E-003;
2.421166666666667E+009;1.540441066026688E-001;-9.574765712022781E-002;-2.698776777833700E-003;-2.777782967314124E-003;
2.421333333333334E+009;1.537112742662430E-001;-9.559456259012222E-002;-2.870473777875304E-003;-2.653827657923102E-003;
2.421500000000000E+009;1.532849818468094E-001;-9.518250077962875E-002;-2.919806865975261E-003;-2.501781797036529E-003;
2.421666666666667E+009;1.527736634016037E-001;-9.490866214036942E-002;-3.075872082263231E-003;-2.375063486397266E-003;
2.421833333333334E+009;1.522119045257568E-001;-9.463294595479965E-002;-3.291967324912548E-003;-2.297966508194804E-003;
2.422000000000000E+009;1.514249444007874E-001;-9.422760456800461E-002;-3.300152719020844E-003;-2.049060072749853E-003;
2.422166666666667E+009;1.505330353975296E-001;-9.429984539747238E-002;-3.302434924989939E-003;-2.095374045893550E-003;
2.422333333333334E+009;1.497817933559418E-001;-9.374589473009110E-002;-3.366901306435466E-003;-1.860363176092506E-003;
2.422500000000000E+009;1.486042886972427E-001;-9.354066848754883E-002;-3.375675296410918E-003;-1.540040946565568E-003;
2.422666666666667E+009;1.474272310733795E-001;-9.350925683975220E-002;-3.450067015364766E-003;-1.537241972982884E-003;
2.422833333333334E+009;1.462626904249191E-001;-9.361761808395386E-002;-3.264466067776084E-003;-1.412187702953816E-003;
2.423000000000000E+009;1.450767964124680E-001;-9.342772513628006E-002;-3.533837618306279E-003;-1.190429786220193E-003;
2.423166666666667E+009;1.436571478843689E-001;-9.350787848234177E-002;-3.277928568422794E-003;-1.128645497374237E-003;
2.423333333333334E+009;1.424071490764618E-001;-9.336801618337631E-002;-3.216145792976022E-003;-8.864873088896275E-004;
2.423500000000000E+009;1.408428400754929E-001;-9.357509762048721E-002;-3.222823841497302E-003;-1.015471410937607E-003;
2.423666666666667E+009;1.392124146223068E-001;-9.378138184547424E-002;-3.124186070635915E-003;-1.164141227491200E-003;
2.423833333333334E+009;1.379236280918121E-001;-9.412731975317001E-002;-3.105962881818414E-003;-8.965783636085689E-004;
2.424000000000000E+009;1.363912075757980E-001;-9.420111775398254E-002;-3.105497453361750E-003;-9.383267024531961E-004;
2.424166666666667E+009;1.347531527280808E-001;-9.475512057542801E-002;-3.038628026843071E-003;-8.453311165794730E-004;
2.424333333333334E+009;1.332420110702515E-001;-9.516537189483643E-002;-2.961444435641170E-003;-1.012056949548423E-003;
2.424500000000000E+009;1.318574547767639E-001;-9.581168740987778E-002;-3.116449806839228E-003;-6.693003815598786E-004;
2.424666666666667E+009;1.304233819246292E-001;-9.635218232870102E-002;-2.919489517807961E-003;-9.472002275288105E-004;
2.424833333333334E+009;1.290576905012131E-001;-9.719609469175339E-002;-3.184944856911898E-003;-7.869473774917424E-004;
2.425000000000000E+009;1.277331113815308E-001;-9.808222204446793E-002;-3.288039239123464E-003;-9.001080179587007E-004;
2.425166666666667E+009;1.262483000755310E-001;-9.908979386091232E-002;-3.308834973722696E-003;-9.255306795239449E-004;
2.425333333333334E+009;1.250278949737549E-001;-1.001806259155273E-001;-3.262069774791598E-003;-6.450274959206581E-004;
2.425500000000000E+009;1.239367648959160E-001;-1.014173850417137E-001;-3.397478489205241E-003;-6.557184970006347E-004;
2.425666666666667E+009;1.225509345531464E-001;-1.025215610861778E-001;-3.509238827973604E-003;-5.792540032416582E-004;
2.425833333333334E+009;1.215377524495125E-001;-1.038461402058601E-001;-3.559286938980222E-003;-5.029371241107583E-004;
2.426000000000000E+009;1.205467805266380E-001;-1.053707674145699E-001;-3.474794793874025E-003;-3.952942206524313E-004;
2.426166666666667E+009;1.197363212704659E-001;-1.067372709512711E-001;-3.551918314769864E-003;-1.618157257325947E-004;
2.426333333333334E+009;1.189762577414513E-001;-1.083342060446739E-001;-3.530158661305904E-003;-1.957720378413796E-004;
2.426500000000000E+009;1.181948259472847E-001;-1.097103953361511E-001;-3.699606982991099E-003;2.303564178873785E-005;
2.426666666666667E+009;1.175894141197205E-001;-1.112561896443367E-001;-3.557813353836536E-003;4.184884528513067E-005;
2.426833333333334E+009;1.169591397047043E-001;-1.128960847854614E-001;-3.689869074150920E-003;1.523343235021457E-004;
2.427000000000000E+009;1.163431406021118E-001;-1.146410852670670E-001;-3.459598403424025E-003;2.759225317277014E-004;
2.427166666666667E+009;1.159418821334839E-001;-1.160736158490181E-001;-3.466400550678372E-003;3.679870278574526E-004;
2.427333333333334E+009;1.155027076601982E-001;-1.177239790558815E-001;-3.388604149222374E-003;5.147360498085618E-004;
2.427500000000000E+009;1.153490245342255E-001;-1.193126365542412E-001;-3.441651118919253E-003;6.052340613678098E-004;
2.427666666666667E+009;1.151557788252831E-001;-1.209463402628899E-001;-3.346946090459824E-003;4.571259196382016E-004;
