# Version 1.00
#
freq[Hz];re:Trc1_S11;im:Trc1_S11;re:Trc2_S21;im:Trc2_S21;
2.400000000000000E+009;1.550077646970749E-001;1.113068684935570E-001;5.402820184826851E-003;4.815034568309784E-003;
2.400166666666667E+009;1.542657613754273E-001;1.089725121855736E-001;5.469120107591152E-003;4.605324473232031E-003;
2.400333333333334E+009;1.540127247571945E-001;1.069021522998810E-001;5.531176924705505E-003;4.293634556233883E-003;
2.400500000000000E+009;1.537020206451416E-001;1.043156459927559E-001;5.613493733108044E-003;4.246279597282410E-003;
2.400666666666667E+009;1.535739600658417E-001;1.018444225192070E-001;5.820443388074637E-003;3.887445200234652E-003;
2.400833333333334E+009;1.533083021640778E-001;9.903629869222641E-002;5.742548033595085E-003;3.743458539247513E-003;
2.401000000000000E+009;1.531721651554108E-001;9.610775858163834E-002;5.961016751825810E-003;3.436448751017451E-003;
2.401166666666667E+009;1.530018001794815E-001;9.326148033142090E-002;6.107211112976074E-003;3.497409401461482E-003;
2.401333333333334E+009;1.533058881759644E-001;9.034495055675507E-002;6.037167739123106E-003;3.247327171266079E-003;
2.401500000000000E+009;1.533423662185669E-001;8.743452280759811E-002;6.269342266023159E-003;2.837262349203229E-003;
2.401666666666667E+009;1.536014378070831E-001;8.448136597871780E-002;6.240929011255503E-003;2.598347142338753E-003;
2.401833333333334E+009;1.538872122764587E-001;8.154398947954178E-002;6.294255610555410E-003;2.546693198382855E-003;
2.402000000000000E+009;1.544654965400696E-001;7.860158383846283E-002;6.388795562088490E-003;2.359543461352587E-003;
2.402166666666667E+009;1.551335752010346E-001;7.585623860359192E-002;6.299230270087719E-003;2.112897578626871E-003;
2.402333333333334E+009;1.560640186071396E-001;7.295075803995132E-002;6.321877241134644E-003;1.917376881465316E-003;
2.402500000000000E+009;1.570348441600800E-001;7.032629102468491E-002;6.410001311451197E-003;1.711059012450278E-003;
2.402666666666667E+009;1.580224931240082E-001;6.769419461488724E-002;6.427560467272997E-003;1.412304583936930E-003;
2.402833333333334E+009;1.593878716230393E-001;6.510477513074875E-002;6.464219186455011E-003;1.203731866553426E-003;
2.403000000000000E+009;1.606987267732620E-001;6.240352243185043E-002;6.379774305969477E-003;1.063834293745458E-003;
2.403166666666667E+009;1.626325845718384E-001;6.002824008464813E-002;6.472453474998474E-003;9.630375425331295E-004;
2.403333333333334E+009;1.640352457761765E-001;5.763533338904381E-002;6.540850270539522E-003;7.282015867531300E-004;
2.403500000000000E+009;1.658793240785599E-001;5.529363453388214E-002;6.447955500334501E-003;4.474747402127832E-004;
2.403666666666667E+009;1.677293628454208E-001;5.306373164057732E-002;6.478365510702133E-003;2.894254284910858E-004;
2.403833333333334E+009;1.694481372833252E-001;5.094537511467934E-002;6.671900395303965E-003;1.214380172314122E-004;
2.404000000000000E+009;1.712871491909027E-001;4.898666590452194E-002;6.571915000677109E-003;-2.157852431992069E-004;
2.404166666666667E+009;1.731884181499481E-001;4.718019068241119E-002;6.511786952614784E-003;-3.259395598433912E-004;
2.404333333333334E+009;1.748987138271332E-001;4.564464464783669E-002;6.659729406237602E-003;-5.864976556040347E-004;
2.404500000000000E+009;1.767629086971283E-001;4.381359368562698E-002;6.428407505154610E-003;-8.592430385760963E-004;
2.404666666666667E+009;1.787206083536148E-001;4.256452620029450E-002;6.553152110427618E-003;-8.714823052287102E-004;
2.404833333333334E+009;1.806051731109619E-001;4.145647212862968E-002;6.483761128038168E-003;-1.318803522735834E-003;
2.405000000000000E+009;1.820022910833359E-001;4.056473821401596E-002;6.334301084280014E-003;-1.481105340644717E-003;
2.405166666666667E+009;1.839866191148758E-001;3.966577723622322E-002;6.024032831192017E-003;-1.577851711772382E-003;
2.405333333333334E+009;1.856521815061569E-001;3.927003964781761E-002;6.040796637535095E-003;-1.804911764338613E-003;
2.405500000000000E+009;1.873101294040680E-001;3.857585787773132E-002;6.008192896842957E-003;-2.053254982456565E-003;
2.405666666666667E+009;1.888207197189331E-001;3.820905089378357E-002;5.703514907509089E-003;-2.186887431889772E-003;
2.405833333333334E+009;1.904403567314148E-001;3.803813457489014E-002;5.819501355290413E-003;-2.239593770354986E-003;
2.406000000000000E+009;1.916186660528183E-001;3.793969750404358E-002;5.549342837184668E-003;-2.621173625811935E-003;
2.406166666666667E+009;1.929033845663071E-001;3.786098584532738E-002;5.515094380825758E-003;-2.586244139820337E-003;
2.406333333333334E+009;1.941071152687073E-001;3.779756650328636E-002;5.329649429768324E-003;-2.668788656592369E-003;
2.406500000000000E+009;1.952583938837051E-001;3.808740153908730E-002;5.313282832503319E-003;-2.820949302986264E-003;
2.406666666666667E+009;1.961529701948166E-001;3.834123909473419E-002;5.143725778907538E-003;-3.159138374030590E-003;
2.406833333333334E+009;1.968292891979218E-001;3.850303217768669E-002;5.165843293070793E-003;-3.130648517981172E-003;
2.407000000000000E+009;1.973761022090912E-001;3.884701058268547E-002;5.105020944029093E-003;-3.130363766103983E-003;
2.407166666666667E+009;1.979240030050278E-001;3.894089907407761E-002;5.014972295612097E-003;-3.196025732904673E-003;
2.407333333333334E+009;1.981647163629532E-001;3.936908766627312E-002;4.932983778417110E-003;-3.282455727458000E-003;
2.407500000000000E+009;1.983983516693115E-001;3.963877260684967E-002;4.947413690388203E-003;-3.393367398530245E-003;
2.407666666666667E+009;1.984172165393829E-001;3.987564519047737E-002;4.855391103774309E-003;-3.516468685120344E-003;
2.407833333333334E+009;1.982163935899735E-001;4.007206112146378E-002;4.703496117144823E-003;-3.649525577202439E-003;
2.408000000000000E+009;1.981938332319260E-001;4.015632346272469E-002;4.580209497362375E-003;-3.854148555546999E-003;
2.408166666666667E+009;1.978362351655960E-001;4.031277447938919E-002;4.432570654898882E-003;-3.817259799689055E-003;
2.408333333333334E+009;1.974400430917740E-001;4.012955725193024E-002;4.452652763575316E-003;-3.954401239752770E-003;
2.408500000000000E+009;1.968022733926773E-001;4.010023921728134E-002;4.487882833927870E-003;-4.073198884725571E-003;
2.408666666666667E+009;1.961411088705063E-001;3.993471339344978E-002;4.418928176164627E-003;-4.209904465824366E-003;
2.408833333333334E+009;1.954001188278198E-001;3.949048370122910E-002;4.404488019645214E-003;-4.298459272831678E-003;
2.409000000000000E+009;1.944554448127747E-001;3.893520310521126E-002;4.486574791371822E-003;-4.372988361865282E-003;
2.409166666666667E+009;1.935556083917618E-001;3.822533413767815E-002;4.280324093997479E-003;-4.614648874849081E-003;
2.409333333333334E+009;1.925926357507706E-001;3.753258287906647E-002;4.293366800993681E-003;-4.629194736480713E-003;
2.409500000000000E+009;1.913499683141708E-001;3.653161972761154E-002;4.012510180473328E-003;-5.033733788877726E-003;
2.409666666666667E+009;1.902336925268173E-001;3.537091985344887E-002;4.175359383225441E-003;-5.256331525743008E-003;
2.409833333333334E+009;1.890701651573181E-001;3.414207324385643E-002;4.148618783801794E-003;-5.343902856111527E-003;
2.410000000000000E+009;1.879224330186844E-001;3.269947320222855E-002;3.943785559386015E-003;-5.565564613789320E-003;
2.410166666666667E+009;1.866237074136734E-001;3.088296577334404E-002;3.849978093057871E-003;-5.754065699875355E-003;
2.410333333333334E+009;1.854105591773987E-001;2.941190451383591E-002;3.657153807580471E-003;-5.927395075559616E-003;
2.410500000000000E+009;1.842915415763855E-001;2.775029279291630E-002;3.469071583822370E-003;-6.225798279047012E-003;
2.410666666666667E+009;1.833314895629883E-001;2.541684918105602E-002;3.233491443097591E-003;-6.439140997827053E-003;
2.410833333333334E+009;1.822914481163025E-001;2.338392660021782E-002;3.053844440728426E-003;-6.634525489062071E-003;
2.411000000000000E+009;1.813477873802185E-001;2.125344052910805E-002;2.789627062156797E-003;-6.764254532754421E-003;
2.411166666666667E+009;1.802708953619003E-001;1.885038614273071E-002;2.411926863715053E-003;-6.834062281996012E-003;
2.411333333333334E+009;1.797974556684494E-001;1.646949909627438E-002;2.277708379551768E-003;-6.940531078726053E-003;
2.411500000000000E+009;1.788934320211411E-001;1.392799336463213E-002;1.977623207494617E-003;-7.086283061653376E-003;
2.411666666666667E+009;1.787077486515045E-001;1.147824060171843E-002;1.675097155384719E-003;-7.281257305294275E-003;
2.411833333333334E+009;1.783153116703033E-001;8.878726512193680E-003;1.388854812830687E-003;-7.269051391631365E-003;
2.412000000000000E+009;1.781539320945740E-001;6.185756996273994E-003;1.084287068806589E-003;-7.511903997510672E-003;
2.412166666666667E+009;1.780745238065720E-001;3.617590060457587E-003;8.016651263460517E-004;-7.437909487634897E-003;
2.412333333333334E+009;1.780243068933487E-001;8.611126686446369E-004;5.273263086564839E-004;-7.450267672538757E-003;
2.412500000000000E+009;1.785162240266800E-001;-1.738147460855544E-003;2.021194086410105E-005;-7.463146466761828E-003;
2.412666666666667E+009;1.786189228296280E-001;-4.554488696157932E-003;-1.227470347657800E-004;-7.470208220183849E-003;
2.412833333333334E+009;1.793233454227448E-001;-7.286287844181061E-003;-5.896384245716035E-004;-7.472424767911434E-003;
2.413000000000000E+009;1.799274533987045E-001;-9.701401926577091E-003;-7.653411594219506E-004;-7.347163278609514E-003;
2.413166666666667E+009;1.806445717811585E-001;-1.222446933388710E-002;-1.026420970447362E-003;-7.400121074169874E-003;
2.413333333333334E+009;1.816311776638031E-001;-1.488532871007919E-002;-1.358594396151602E-003;-7.252056151628494E-003;
2.413500000000000E+009;1.823761761188507E-001;-1.741614565253258E-002;-1.524915220215917E-003;-7.216305006295443E-003;
2.413666666666667E+009;1.836013346910477E-001;-2.005234174430370E-002;-1.725047477521002E-003;-7.031294982880354E-003;
2.413833333333334E+009;1.846127510070801E-001;-2.213284745812416E-002;-2.093905350193381E-003;-6.953672971576452E-003;
2.414000000000000E+009;1.858887374401093E-001;-2.449028752744198E-002;-2.424421487376094E-003;-6.715504918247461E-003;
2.414166666666667E+009;1.873688995838165E-001;-2.656612358987331E-002;-2.564363414421678E-003;-6.623888388276100E-003;
2.414333333333334E+009;1.885564476251602E-001;-2.875932306051254E-002;-2.848844742402434E-003;-6.739503238350153E-003;
2.414500000000000E+009;1.898772120475769E-001;-3.036561980843544E-002;-2.923010149970651E-003;-6.321502849459648E-003;
2.414666666666667E+009;1.911682188510895E-001;-3.206346184015274E-002;-3.083260497078300E-003;-6.271555554121733E-003;
2.414833333333334E+009;1.923988759517670E-001;-3.366477042436600E-002;-3.407711395993829E-003;-6.074240431189537E-003;
2.415000000000000E+009;1.937915235757828E-001;-3.518295288085938E-002;-3.669492201879621E-003;-6.033348385244608E-003;
2.415166666666667E+009;1.952794343233109E-001;-3.650259971618652E-002;-3.864152124151588E-003;-5.866842810064554E-003;
2.415333333333334E+009;1.967527121305466E-001;-3.757701814174652E-002;-3.956901840865612E-003;-5.870665423572063E-003;
2.415500000000000E+009;1.979007571935654E-001;-3.843261301517487E-002;-4.238537512719631E-003;-5.572585389018059E-003;
2.415666666666667E+009;1.992931962013245E-001;-3.949848189949989E-002;-4.488581325858831E-003;-5.530057940632105E-003;
2.415833333333334E+009;2.004490643739700E-001;-4.014665260910988E-002;-4.468271508812904E-003;-5.440947134047747E-003;
2.416000000000000E+009;2.013656049966812E-001;-4.095660895109177E-002;-4.653300624340773E-003;-5.061078350991011E-003;
2.416166666666667E+009;2.025101631879807E-001;-4.158831015229225E-002;-4.743612837046385E-003;-4.890541080385447E-003;
2.416333333333334E+009;2.033476978540421E-001;-4.186961054801941E-002;-4.861924797296524E-003;-4.703463520854712E-003;
2.416500000000000E+009;2.041317522525787E-001;-4.215941950678825E-002;-5.034511908888817E-003;-4.448475781828165E-003;
2.416666666666667E+009;2.047441154718399E-001;-4.250155389308929E-002;-5.156568251550198E-003;-4.318270366638899E-003;
2.416833333333334E+009;2.051198333501816E-001;-4.238045960664749E-002;-5.251782014966011E-003;-4.155595786869526E-003;
2.417000000000000E+009;2.055097520351410E-001;-4.253163933753967E-002;-5.403131246566773E-003;-3.937384579330683E-003;
2.417166666666667E+009;2.054375410079956E-001;-4.242078214883804E-002;-5.500565283000469E-003;-3.676469903439283E-003;
2.417333333333334E+009;2.055193334817886E-001;-4.207370802760124E-002;-5.719058215618134E-003;-3.588631050661206E-003;
2.417500000000000E+009;2.054752111434937E-001;-4.199771210551262E-002;-5.614131689071655E-003;-3.400444751605392E-003;
2.417666666666667E+009;2.050450593233109E-001;-4.169642552733421E-002;-5.855459719896317E-003;-3.068781225010753E-003;
2.417833333333334E+009;2.048930227756500E-001;-4.133268445730209E-002;-5.850786808878183E-003;-2.836472587659955E-003;
2.418000000000000E+009;2.044883072376251E-001;-4.086060076951981E-002;-5.941248498857021E-003;-2.752156229689717E-003;
2.418166666666667E+009;2.037799805402756E-001;-4.067440330982208E-002;-6.006747018545866E-003;-2.469517989084125E-003;
2.418333333333334E+009;2.029594630002976E-001;-4.022048786282539E-002;-5.984979681670666E-003;-2.231072634458542E-003;
2.418500000000000E+009;2.021110653877258E-001;-4.007768258452416E-002;-5.929686129093170E-003;-2.111518289893866E-003;
2.418666666666667E+009;2.011959999799728E-001;-3.976974263787270E-002;-6.057972088456154E-003;-1.802042126655579E-003;
2.418833333333334E+009;1.999056637287140E-001;-3.958005830645561E-002;-5.896484479308128E-003;-1.592513290233910E-003;
2.419000000000000E+009;1.987589001655579E-001;-3.963532671332359E-002;-5.839313380420208E-003;-1.423352980054915E-003;
2.419166666666667E+009;1.974437087774277E-001;-3.972750902175903E-002;-5.906077101826668E-003;-1.251723966561258E-003;
2.419333333333334E+009;1.960696429014206E-001;-3.997229039669037E-002;-5.887799896299839E-003;-1.163211651146412E-003;
2.419500000000000E+009;1.944993287324905E-001;-4.017651453614235E-002;-5.819980520755053E-003;-1.011587213724852E-003;
2.419666666666667E+009;1.928063333034515E-001;-4.076962918043137E-002;-5.741323810070753E-003;-9.025930194184184E-004;
2.419833333333334E+009;1.911719441413879E-001;-4.124696180224419E-002;-5.821100901812315E-003;-7.708464399911463E-004;
2.420000000000000E+009;1.894750744104385E-001;-4.177328944206238E-002;-5.752822384238243E-003;-6.800192059017718E-004;
2.420166666666667E+009;1.877715289592743E-001;-4.267691448330879E-002;-5.724214948713779E-003;-5.620559095405042E-004;
2.420333333333334E+009;1.859814524650574E-001;-4.356189072132111E-002;-5.806538742035627E-003;-5.124895833432674E-004;
2.420500000000000E+009;1.841039359569550E-001;-4.501647129654884E-002;-6.011679302901030E-003;-4.990637535229325E-004;
2.420666666666667E+009;1.823373287916184E-001;-4.577806591987610E-002;-5.834952462464571E-003;-2.717752067837864E-004;
2.420833333333334E+009;1.805382668972015E-001;-4.728892818093300E-002;-5.905462894588709E-003;-2.287975657964125E-004;
2.421000000000000E+009;1.789321005344391E-001;-4.890390485525131E-002;-5.958325229585171E-003;-2.935459815489594E-005;
2.421166666666667E+009;1.771878004074097E-001;-5.037514492869377E-002;-5.853080656379461E-003;1.192974013974890E-004;
2.421333333333334E+009;1.753344833850861E-001;-5.201766267418861E-002;-5.966707598417997E-003;2.835456689354032E-004;
2.421500000000000E+009;1.737997084856033E-001;-5.406299605965614E-002;-6.038108840584755E-003;5.251195398159325E-004;
2.421666666666667E+009;1.721979081630707E-001;-5.592074617743492E-002;-6.035528611391783E-003;6.506868521682918E-004;
2.421833333333334E+009;1.708897203207016E-001;-5.793551728129387E-002;-5.974274594336748E-003;9.157527820207179E-004;
2.422000000000000E+009;1.695678383111954E-001;-5.982834100723267E-002;-6.019089370965958E-003;9.945490164682269E-004;
2.422166666666667E+009;1.683936715126038E-001;-6.209870800375938E-002;-5.810160189867020E-003;1.158297178335488E-003;
2.422333333333334E+009;1.672719568014145E-001;-6.427875161170960E-002;-5.965999327600002E-003;1.417064573615789E-003;
2.422500000000000E+009;1.662414222955704E-001;-6.630179286003113E-002;-5.877599120140076E-003;1.494872616603971E-003;
2.422666666666667E+009;1.654265522956848E-001;-6.847839802503586E-002;-5.661328788846731E-003;1.772505813278258E-003;
2.422833333333334E+009;1.648174971342087E-001;-7.089918106794357E-002;-5.736622959375382E-003;1.733663491904736E-003;
2.423000000000000E+009;1.639878451824188E-001;-7.304342091083527E-002;-5.617566406726837E-003;2.053805161267519E-003;
2.423166666666667E+009;1.636405438184738E-001;-7.531551271677017E-002;-5.598063115030527E-003;2.216982422396541E-003;
2.423333333333334E+009;1.631822735071182E-001;-7.757712900638580E-002;-5.375401116907597E-003;2.468008082360029E-003;
2.423500000000000E+009;1.630812585353851E-001;-7.951430231332779E-002;-5.340899806469679E-003;2.610985422506928E-003;
2.423666666666667E+009;1.630515903234482E-001;-8.160306513309479E-002;-5.415572784841061E-003;2.705378690734506E-003;
2.423833333333334E+009;1.629620492458344E-001;-8.362363278865814E-002;-5.390022415667772E-003;2.772057196125388E-003;
2.424000000000000E+009;1.631159484386444E-001;-8.562491089105606E-002;-5.149380303919315E-003;2.903054468333721E-003;
2.424166666666667E+009;1.631599813699722E-001;-8.742129802703857E-002;-5.105448886752129E-003;3.142962232232094E-003;
2.424333333333334E+009;1.634861975908279E-001;-8.920159935951233E-002;-5.016456358134747E-003;3.137669060379267E-003;
2.424500000000000E+009;1.639852821826935E-001;-9.138373285531998E-002;-5.036727525293827E-003;3.410793375223875E-003;
2.424666666666667E+009;1.643217206001282E-001;-9.277552366256714E-002;-4.953377414494753E-003;3.530573565512896E-003;
2.424833333333334E+009;1.649166643619537E-001;-9.436943382024765E-002;-4.940264858305454E-003;3.669778117910028E-003;
2.425000000000000E+009;1.654418259859085E-001;-9.583095461130142E-002;-4.757738672196865E-003;3.909295424818993E-003;
2.425166666666667E+009;1.660304665565491E-001;-9.703687578439713E-002;-4.686362575739622E-003;3.964209463447332E-003;
2.425333333333334E+009;1.664657145738602E-001;-9.817256778478622E-002;-4.409479908645153E-003;4.355170764029026E-003;
2.425500000000000E+009;1.671835929155350E-001;-9.938693046569824E-002;-4.408245440572500E-003;4.343923646956682E-003;
2.425666666666667E+009;1.676125228404999E-001;-1.002287194132805E-001;-4.221676848828793E-003;4.483568482100964E-003;
2.425833333333334E+009;1.682147681713104E-001;-1.012099683284760E-001;-4.020107444375753E-003;4.655178170651197E-003;
2.426000000000000E+009;1.688832044601440E-001;-1.017621532082558E-001;-3.863507183268666E-003;4.924247507005930E-003;
2.426166666666667E+009;1.695595830678940E-001;-1.023776605725288E-001;-3.839046927168965E-003;4.925316665321589E-003;
2.426333333333334E+009;1.698897629976273E-001;-1.029134243726730E-001;-3.545069834217429E-003;5.163676105439663E-003;
2.426500000000000E+009;1.704811900854111E-001;-1.033272370696068E-001;-3.346202662214637E-003;5.261012353003025E-003;
2.426666666666667E+009;1.709888130426407E-001;-1.037488728761673E-001;-3.246632637456060E-003;5.241717677563429E-003;
2.426833333333334E+009;1.715032160282135E-001;-1.040131673216820E-001;-2.902211388573051E-003;5.360684823244810E-003;
2.427000000000000E+009;1.717119365930557E-001;-1.042137965559959E-001;-2.687577158212662E-003;5.563693586736918E-003;
2.427166666666667E+009;1.720816642045975E-001;-1.042721942067146E-001;-2.434115856885910E-003;5.623896606266499E-003;
2.427333333333334E+009;1.721346527338028E-001;-1.045352369546890E-001;-2.291531069204211E-003;5.805287044495344E-003;
2.427500000000000E+009;1.721746772527695E-001;-1.045579537749291E-001;-2.193216234445572E-003;5.864192731678486E-003;
2.427666666666667E+009;1.720644682645798E-001;-1.045175939798355E-001;-2.071577357128263E-003;5.732148885726929E-003;
