# Version 1.00
#
freq[Hz];re:Trc1_S11;im:Trc1_S11;re:Trc2_S21;im:Trc2_S21;
2.400000000000000E+009;1.549728810787201E-001;1.118457093834877E-001;5.547235719859600E-003;4.893067758530378E-003;
2.400166666666667E+009;1.544502377510071E-001;1.095492094755173E-001;5.551291164010763E-003;4.441973287612200E-003;
2.400333333333334E+009;1.543585062026978E-001;1.074354276061058E-001;5.625730846077204E-003;4.190925043076277E-003;
2.400500000000000E+009;1.539637148380280E-001;1.048072800040245E-001;5.812825169414282E-003;4.000772256404162E-003;
2.400666666666667E+009;1.538723111152649E-001;1.024010479450226E-001;5.931170191615820E-003;3.872706321999431E-003;
2.400833333333334E+009;1.535975039005280E-001;9.948626905679703E-002;6.081745494157076E-003;3.526537911966443E-003;
2.401000000000000E+009;1.536372005939484E-001;9.665970504283905E-002;6.177820730954409E-003;3.378659952431917E-003;
2.401166666666667E+009;1.533152610063553E-001;9.384032338857651E-002;6.265411153435707E-003;3.301312215626240E-003;
2.401333333333334E+009;1.534735411405563E-001;9.098553657531738E-002;6.299235858023167E-003;2.913203788921237E-003;
2.401500000000000E+009;1.536294668912888E-001;8.784009516239166E-002;6.228033918887377E-003;2.760287374258041E-003;
2.401666666666667E+009;1.538192182779312E-001;8.486726880073547E-002;6.282743997871876E-003;2.577257109805942E-003;
2.401833333333334E+009;1.540704667568207E-001;8.196949213743210E-002;6.309516727924347E-003;2.178449183702469E-003;
2.402000000000000E+009;1.548985987901688E-001;7.893775403499603E-002;6.495165172964335E-003;2.242777030915022E-003;
2.402166666666667E+009;1.556078046560288E-001;7.634757459163666E-002;6.429056171327829E-003;1.849991618655622E-003;
2.402333333333334E+009;1.564312428236008E-001;7.340721786022186E-002;6.630389485508204E-003;1.771214185282588E-003;
2.402500000000000E+009;1.574100404977799E-001;7.065320014953613E-002;6.409836001694202E-003;1.558153657242656E-003;
2.402666666666667E+009;1.586070656776428E-001;6.817137449979782E-002;6.412656046450138E-003;1.401904155500233E-003;
2.402833333333334E+009;1.596973985433579E-001;6.522940844297409E-002;6.569749675691128E-003;1.173761324025691E-003;
2.403000000000000E+009;1.611657589673996E-001;6.273879110813141E-002;6.548272911459208E-003;1.087489887140691E-003;
2.403166666666667E+009;1.630776375532150E-001;6.022699177265167E-002;6.583612412214279E-003;7.088185520842671E-004;
2.403333333333334E+009;1.644553691148758E-001;5.777487158775330E-002;6.622908171266317E-003;4.988114815205336E-004;
2.403500000000000E+009;1.663413941860199E-001;5.565399676561356E-002;6.531361024826765E-003;2.384121908107773E-004;
2.403666666666667E+009;1.682153642177582E-001;5.338450521230698E-002;6.501462776213884E-003;1.222840364789590E-004;
2.403833333333334E+009;1.700210869312286E-001;5.115255340933800E-002;6.570909637957811E-003;-1.499810750829056E-004;
2.404000000000000E+009;1.716350764036179E-001;4.912464693188667E-002;6.580677814781666E-003;-1.566204591654241E-004;
2.404166666666667E+009;1.735904663801193E-001;4.755457490682602E-002;6.640028208494186E-003;-5.075843655504286E-004;
2.404333333333334E+009;1.753699481487274E-001;4.556743800640106E-002;6.400489248335362E-003;-7.245081942528486E-004;
2.404500000000000E+009;1.773306876420975E-001;4.403980821371079E-002;6.387161090970039E-003;-9.170698467642069E-004;
2.404666666666667E+009;1.790870279073715E-001;4.268845543265343E-002;6.386850960552692E-003;-1.259322394616902E-003;
2.404833333333334E+009;1.810295581817627E-001;4.140046611428261E-002;6.327978800982237E-003;-1.448977971449494E-003;
2.405000000000000E+009;1.826117932796478E-001;4.063794389367104E-002;6.076938472688198E-003;-1.631960622034967E-003;
2.405166666666667E+009;1.843653470277786E-001;3.975289314985275E-002;6.055370438843966E-003;-1.920207520015538E-003;
2.405333333333334E+009;1.861526817083359E-001;3.927759826183319E-002;5.916898604482412E-003;-2.033892786130309E-003;
2.405500000000000E+009;1.877396106719971E-001;3.881990164518356E-002;5.942430347204208E-003;-2.203059149906039E-003;
2.405666666666667E+009;1.891802996397018E-001;3.833525627851486E-002;5.778759717941284E-003;-2.364340703934431E-003;
2.405833333333334E+009;1.908109337091446E-001;3.790038079023361E-002;5.687014665454626E-003;-2.584873931482434E-003;
2.406000000000000E+009;1.921234279870987E-001;3.779300302267075E-002;5.509180948138237E-003;-2.739306306466460E-003;
2.406166666666667E+009;1.933690756559372E-001;3.773642331361771E-002;5.297588650137186E-003;-2.800232032313943E-003;
2.406333333333334E+009;1.946407854557037E-001;3.794299438595772E-002;5.270692054182291E-003;-2.932808827608824E-003;
2.406500000000000E+009;1.956168413162231E-001;3.800288215279579E-002;5.066093988716602E-003;-3.092741128057241E-003;
2.406666666666667E+009;1.964887529611588E-001;3.808291628956795E-002;5.018350668251514E-003;-3.207359928637743E-003;
2.406833333333334E+009;1.973361521959305E-001;3.832550719380379E-002;4.958637524396181E-003;-3.234300762414932E-003;
2.407000000000000E+009;1.978244781494141E-001;3.876852989196777E-002;4.801283124834299E-003;-3.403356997296214E-003;
2.407166666666667E+009;1.985084712505341E-001;3.885655850172043E-002;4.903461784124374E-003;-3.410712350159884E-003;
2.407333333333334E+009;1.985890269279480E-001;3.923948109149933E-002;4.690375644713640E-003;-3.397833323106170E-003;
2.407500000000000E+009;1.986686736345291E-001;3.956086933612824E-002;4.655399825423956E-003;-3.629791550338268E-003;
2.407666666666667E+009;1.988511234521866E-001;3.978051617741585E-002;4.443332087248564E-003;-3.760626306757331E-003;
2.407833333333334E+009;1.984698623418808E-001;3.990017995238304E-002;4.482844378799200E-003;-3.585672471672297E-003;
2.408000000000000E+009;1.984765082597733E-001;3.997332230210304E-002;4.391000140458345E-003;-3.832625690847635E-003;
2.408166666666667E+009;1.981581598520279E-001;4.003242030739784E-002;4.479451104998589E-003;-4.066881723701954E-003;
2.408333333333334E+009;1.977782249450684E-001;4.005516320466995E-002;4.231857601553202E-003;-3.840144025161862E-003;
2.408500000000000E+009;1.971342265605927E-001;3.995071724057198E-002;4.166280850768089E-003;-4.065105691552162E-003;
2.408666666666667E+009;1.964273750782013E-001;3.978604078292847E-002;4.212899599224329E-003;-4.213549662381411E-003;
2.408833333333334E+009;1.957897990942001E-001;3.929591923952103E-002;4.039320163428783E-003;-4.366214387118816E-003;
2.409000000000000E+009;1.948029100894928E-001;3.879882022738457E-002;4.151599016040564E-003;-4.443936981260777E-003;
2.409166666666667E+009;1.937021762132645E-001;3.814074397087097E-002;4.225002601742744E-003;-4.616132006049156E-003;
2.409333333333334E+009;1.928234994411469E-001;3.741190582513809E-002;4.057226702570915E-003;-4.695099312812090E-003;
2.409500000000000E+009;1.916308999061585E-001;3.630811721086502E-002;4.000172484666109E-003;-4.933934193104506E-003;
2.409666666666667E+009;1.905613690614700E-001;3.509185463190079E-002;3.984040115028620E-003;-5.177839193493128E-003;
2.409833333333334E+009;1.893978267908096E-001;3.402704745531082E-002;3.726664464920759E-003;-5.281150341033936E-003;
2.410000000000000E+009;1.882359534502029E-001;3.263757005333901E-002;3.738770959898830E-003;-5.652998108416796E-003;
2.410166666666667E+009;1.870556175708771E-001;3.075922094285488E-002;3.549214685335755E-003;-5.606183782219887E-003;
2.410333333333334E+009;1.858155876398087E-001;2.921241149306297E-002;3.498395439237356E-003;-5.862897261977196E-003;
2.410500000000000E+009;1.845900416374207E-001;2.748737856745720E-002;3.153301309794188E-003;-6.166362203657627E-003;
2.410666666666667E+009;1.835271269083023E-001;2.514639496803284E-002;2.987382002174854E-003;-6.371425464749336E-003;
2.410833333333334E+009;1.825846135616303E-001;2.324847131967545E-002;2.831188729032874E-003;-6.552863866090775E-003;
2.411000000000000E+009;1.815810501575470E-001;2.089334838092327E-002;2.686044434085488E-003;-6.630167365074158E-003;
2.411166666666667E+009;1.806494891643524E-001;1.865974627435207E-002;2.328315982595086E-003;-6.955162622034550E-003;
2.411333333333334E+009;1.800884753465653E-001;1.603356935083866E-002;2.075782278552651E-003;-6.911710370332003E-003;
2.411500000000000E+009;1.793843656778336E-001;1.375753246247768E-002;1.749662216752768E-003;-7.058721501380205E-003;
2.411666666666667E+009;1.789901405572891E-001;1.114024594426155E-002;1.539593562483788E-003;-7.135999854654074E-003;
2.411833333333334E+009;1.783504933118820E-001;8.734064176678658E-003;1.236699754372239E-003;-7.236024364829063E-003;
2.412000000000000E+009;1.784774065017700E-001;5.879468750208616E-003;9.472784004174173E-004;-7.328891661018133E-003;
2.412166666666667E+009;1.783034801483154E-001;3.382967552170157E-003;6.726571009494364E-004;-7.379429880529642E-003;
2.412333333333334E+009;1.782444566488266E-001;7.016763556748629E-004;3.118848544545472E-004;-7.285837084054947E-003;
2.412500000000000E+009;1.783850640058518E-001;-2.054848242551088E-003;-2.939000296464656E-005;-7.533399388194084E-003;
2.412666666666667E+009;1.788277179002762E-001;-4.704108927398920E-003;-2.770443097688258E-004;-7.320481352508068E-003;
2.412833333333334E+009;1.794819235801697E-001;-7.419339846819639E-003;-6.329491734504700E-004;-7.231819443404675E-003;
2.413000000000000E+009;1.800250262022018E-001;-9.960052557289600E-003;-8.108502370305359E-004;-7.170615252107382E-003;
2.413166666666667E+009;1.807927340269089E-001;-1.243034377694130E-002;-1.055299304425716E-003;-7.273839320987463E-003;
2.413333333333334E+009;1.816694587469101E-001;-1.517427898943424E-002;-1.327490201219916E-003;-7.264538668096066E-003;
2.413500000000000E+009;1.826104819774628E-001;-1.760700903832912E-002;-1.610269304364920E-003;-6.998573429882526E-003;
2.413666666666667E+009;1.837723702192307E-001;-2.010842040181160E-002;-2.113416092470288E-003;-6.883928086608648E-003;
2.413833333333334E+009;1.848679184913635E-001;-2.244069799780846E-002;-2.056300640106201E-003;-6.720843724906445E-003;
2.414000000000000E+009;1.860342770814896E-001;-2.465222403407097E-002;-2.344346139580011E-003;-6.640495732426643E-003;
2.414166666666667E+009;1.874520331621170E-001;-2.669427916407585E-002;-2.489112550392747E-003;-6.473476998507977E-003;
2.414333333333334E+009;1.885622590780258E-001;-2.880334667861462E-002;-2.807841403409839E-003;-6.325194146484137E-003;
2.414500000000000E+009;1.898583769798279E-001;-3.064108826220036E-002;-3.027190454304218E-003;-6.261018570512533E-003;
2.414666666666667E+009;1.913103312253952E-001;-3.233617916703224E-002;-3.087598364800215E-003;-6.073445547372103E-003;
2.414833333333334E+009;1.926124393939972E-001;-3.401868045330048E-002;-3.375225234776735E-003;-6.105913314968348E-003;
2.415000000000000E+009;1.938459724187851E-001;-3.550621867179871E-002;-3.573501016944647E-003;-5.986709147691727E-003;
2.415166666666667E+009;1.953486204147339E-001;-3.672010079026222E-002;-3.856027033179998E-003;-5.728606600314379E-003;
2.415333333333334E+009;1.967276036739349E-001;-3.796010091900826E-002;-3.945267759263516E-003;-5.658641457557678E-003;
2.415500000000000E+009;1.980716884136200E-001;-3.879850730299950E-002;-4.199561662971973E-003;-5.435069091618061E-003;
2.415666666666667E+009;1.993540227413178E-001;-3.980020433664322E-002;-4.458864219486713E-003;-5.334458779543638E-003;
2.415833333333334E+009;2.004160284996033E-001;-4.054928570985794E-002;-4.553412552922964E-003;-5.128829739987850E-003;
2.416000000000000E+009;2.014343440532684E-001;-4.113120213150978E-002;-4.636678844690323E-003;-4.912117496132851E-003;
2.416166666666667E+009;2.024454027414322E-001;-4.188035428524017E-002;-4.896778613328934E-003;-4.718095064163208E-003;
2.416333333333334E+009;2.032545059919357E-001;-4.232585057616234E-002;-4.884164314717054E-003;-4.492318257689476E-003;
2.416500000000000E+009;2.041994780302048E-001;-4.244711995124817E-002;-5.175538361072540E-003;-4.298397805541754E-003;
2.416666666666667E+009;2.047299146652222E-001;-4.274810105562210E-002;-5.026423372328281E-003;-4.180832765996456E-003;
2.416833333333334E+009;2.049916833639145E-001;-4.275785386562347E-002;-5.389356520026922E-003;-3.988142125308514E-003;
2.417000000000000E+009;2.054605782032013E-001;-4.294724017381668E-002;-5.361478775739670E-003;-3.715587779879570E-003;
2.417166666666667E+009;2.054642885923386E-001;-4.273316636681557E-002;-5.350264254957438E-003;-3.609956242144108E-003;
2.417333333333334E+009;2.054454237222672E-001;-4.245816916227341E-002;-5.438670981675386E-003;-3.174748970195651E-003;
2.417500000000000E+009;2.054671794176102E-001;-4.227455705404282E-002;-5.676466971635819E-003;-3.082428826019168E-003;
2.417666666666667E+009;2.050663828849793E-001;-4.189985990524292E-002;-5.663155578076839E-003;-2.935881959274411E-003;
2.417833333333334E+009;2.047768682241440E-001;-4.164449870586395E-002;-5.706479772925377E-003;-2.711138688027859E-003;
2.418000000000000E+009;2.042742073535919E-001;-4.120943322777748E-002;-5.891672801226378E-003;-2.577797975391150E-003;
2.418166666666667E+009;2.035849392414093E-001;-4.090189188718796E-002;-5.981645081192255E-003;-2.310673939064145E-003;
2.418333333333334E+009;2.027901113033295E-001;-4.049861431121826E-002;-5.813785362988710E-003;-2.025048946961761E-003;
2.418500000000000E+009;2.020548284053803E-001;-4.025225713849068E-002;-5.887084640562534E-003;-1.751234172843397E-003;
2.418666666666667E+009;2.011114060878754E-001;-3.995319455862045E-002;-5.816656630486250E-003;-1.724156318232417E-003;
2.418833333333334E+009;1.998529136180878E-001;-3.994794189929962E-002;-5.671009887009859E-003;-1.453910605050623E-003;
2.419000000000000E+009;1.986479759216309E-001;-3.993127122521401E-002;-5.737246479839087E-003;-1.274318434298039E-003;
2.419166666666667E+009;1.972759366035461E-001;-3.994185104966164E-002;-5.666085518896580E-003;-1.099954824894667E-003;
2.419333333333334E+009;1.958827525377274E-001;-4.014255106449127E-002;-5.771602038294077E-003;-1.028451370075345E-003;
2.419500000000000E+009;1.943192780017853E-001;-4.040667787194252E-002;-5.716265644878149E-003;-9.778847452253103E-004;
2.419666666666667E+009;1.927328407764435E-001;-4.089293256402016E-002;-5.788128357380629E-003;-6.816805689595640E-004;
2.419833333333334E+009;1.911011487245560E-001;-4.141326993703842E-002;-5.505203269422054E-003;-6.409644265659154E-004;
2.420000000000000E+009;1.893850713968277E-001;-4.202650859951973E-002;-5.629450082778931E-003;-5.292590358294547E-004;
2.420166666666667E+009;1.875626742839813E-001;-4.284857586026192E-002;-5.578766576945782E-003;-6.872552912682295E-004;
2.420333333333334E+009;1.857587993144989E-001;-4.385350644588471E-002;-5.641297902911902E-003;-3.710775345098227E-004;
2.420500000000000E+009;1.838952600955963E-001;-4.516599699854851E-002;-5.609683226794004E-003;-4.341440799180418E-004;
2.420666666666667E+009;1.821466833353043E-001;-4.604220762848854E-002;-5.663793534040451E-003;-1.315267872996628E-004;
2.420833333333334E+009;1.803257316350937E-001;-4.757804796099663E-002;-5.770091433078051E-003;-1.184244956675684E-005;
2.421000000000000E+009;1.786002069711685E-001;-4.907582700252533E-002;-5.874449852854013E-003;1.226589665748179E-004;
2.421166666666667E+009;1.769329905509949E-001;-5.077790096402168E-002;-5.825052969157696E-003;1.470490387873724E-004;
2.421333333333334E+009;1.750814914703369E-001;-5.221014469861984E-002;-5.838013254106045E-003;3.072458202950656E-004;
2.421500000000000E+009;1.734290570020676E-001;-5.425267294049263E-002;-5.872076377272606E-003;6.373507785610855E-004;
2.421666666666667E+009;1.720116883516312E-001;-5.594369769096375E-002;-5.842778831720352E-003;6.454493850469589E-004;
2.421833333333334E+009;1.707267612218857E-001;-5.796205624938011E-002;-5.895658861845732E-003;7.905899547040463E-004;
2.422000000000000E+009;1.693709641695023E-001;-6.021324917674065E-002;-5.862621124833822E-003;1.163095002993941E-003;
2.422166666666667E+009;1.683721244335175E-001;-6.224460527300835E-002;-5.721856839954853E-003;1.161270309239626E-003;
2.422333333333334E+009;1.669975966215134E-001;-6.456072628498077E-002;-5.744038615375757E-003;1.445292145945132E-003;
2.422500000000000E+009;1.660004556179047E-001;-6.654894351959229E-002;-5.784585606306791E-003;1.579692820087075E-003;
2.422666666666667E+009;1.650756299495697E-001;-6.867931783199310E-002;-5.574332550168037E-003;1.848991494625807E-003;
2.422833333333334E+009;1.645918339490891E-001;-7.093656063079834E-002;-5.471192765980959E-003;1.974698156118393E-003;
2.423000000000000E+009;1.638736575841904E-001;-7.318568974733353E-002;-5.474663805216551E-003;2.001308603212237E-003;
2.423166666666667E+009;1.631864458322525E-001;-7.516595721244812E-002;-5.284470040351152E-003;2.283037407323718E-003;
2.423333333333334E+009;1.629705280065537E-001;-7.758057862520218E-002;-5.379366688430309E-003;2.314268145710230E-003;
2.423500000000000E+009;1.626835316419601E-001;-7.952047884464264E-002;-5.391518119722605E-003;2.394957700744271E-003;
2.423666666666667E+009;1.627883315086365E-001;-8.173944056034088E-002;-5.227588582783938E-003;2.568312222138047E-003;
2.423833333333334E+009;1.625786125659943E-001;-8.358772099018097E-002;-5.083056632429361E-003;2.744713332504034E-003;
2.424000000000000E+009;1.627687066793442E-001;-8.571857959032059E-002;-5.015892907977104E-003;2.970527857542038E-003;
2.424166666666667E+009;1.629087626934052E-001;-8.754646033048630E-002;-4.996179137378931E-003;3.117720829322934E-003;
2.424333333333334E+009;1.630657762289047E-001;-8.921920508146286E-002;-4.928383510559797E-003;3.259119810536504E-003;
2.424500000000000E+009;1.636269241571426E-001;-9.125098586082459E-002;-4.794760141521692E-003;3.246906679123640E-003;
2.424666666666667E+009;1.638395488262177E-001;-9.293800592422485E-002;-4.736693110316992E-003;3.461034968495369E-003;
2.424833333333334E+009;1.647280901670456E-001;-9.436362981796265E-002;-4.574468825012445E-003;3.738227998837829E-003;
2.425000000000000E+009;1.651554405689240E-001;-9.582182765007019E-002;-4.546542651951313E-003;3.694785758852959E-003;
2.425166666666667E+009;1.655628234148026E-001;-9.713623672723770E-002;-4.507351201027632E-003;3.881423734128475E-003;
2.425333333333334E+009;1.661215126514435E-001;-9.814979135990143E-002;-4.284275230020285E-003;4.046112764626741E-003;
2.425500000000000E+009;1.667898297309876E-001;-9.931046515703201E-002;-4.035668913275003E-003;4.135357216000557E-003;
2.425666666666667E+009;1.674360036849976E-001;-1.001712158322334E-001;-4.123076330870390E-003;4.242400638759136E-003;
2.425833333333334E+009;1.678654402494431E-001;-1.011732444167137E-001;-4.003974609076977E-003;4.625344183295965E-003;
2.426000000000000E+009;1.686250120401382E-001;-1.016752272844315E-001;-3.771539311856031E-003;4.763614851981401E-003;
2.426166666666667E+009;1.692194342613220E-001;-1.023256331682205E-001;-3.643461503088474E-003;4.892345052212477E-003;
2.426333333333334E+009;1.695703268051148E-001;-1.029239743947983E-001;-3.531617112457752E-003;4.929319955408573E-003;
2.426500000000000E+009;1.701774150133133E-001;-1.032142490148544E-001;-3.231826703995466E-003;5.180418491363525E-003;
2.426666666666667E+009;1.707288324832916E-001;-1.036492288112640E-001;-3.075909335166216E-003;5.271267611533403E-003;
2.426833333333334E+009;1.712680757045746E-001;-1.038867831230164E-001;-2.865351736545563E-003;5.178380291908979E-003;
2.427000000000000E+009;1.714850366115570E-001;-1.040901765227318E-001;-2.795781241729856E-003;5.384017713367939E-003;
2.427166666666667E+009;1.717992871999741E-001;-1.041507348418236E-001;-2.423213794827461E-003;5.506017245352268E-003;
2.427333333333334E+009;1.718872487545013E-001;-1.043370813131332E-001;-2.302050823345780E-003;5.509903188794851E-003;
2.427500000000000E+009;1.719688326120377E-001;-1.044957339763641E-001;-2.219915855675936E-003;5.734797101467848E-003;
2.427666666666667E+009;1.717854738235474E-001;-1.043709740042687E-001;-1.883792341686785E-003;5.457212682813406E-003;
