# Version 1.00
#
freq[Hz];re:Trc1_S11;im:Trc1_S11;re:Trc2_S21;im:Trc2_S21;
2.400000000000000E+009;1.549510955810547E-001;1.115550026297569E-001;5.439179483801127E-003;4.904394969344139E-003;
2.400166666666667E+009;1.544312238693237E-001;1.093132272362709E-001;5.360505077987909E-003;4.677866585552692E-003;
2.400333333333334E+009;1.541605591773987E-001;1.071113124489784E-001;5.608464591205120E-003;4.418796394020319E-003;
2.400500000000000E+009;1.539052724838257E-001;1.044498905539513E-001;5.632573738694191E-003;3.999481908977032E-003;
2.400666666666667E+009;1.539269089698792E-001;1.021173670887947E-001;5.767654627561569E-003;3.819439327344298E-003;
2.400833333333334E+009;1.534557044506073E-001;9.935306012630463E-002;5.843872204422951E-003;3.680968889966607E-003;
2.401000000000000E+009;1.535080522298813E-001;9.627141058444977E-002;5.969684571027756E-003;3.568121232092381E-003;
2.401166666666667E+009;1.532111167907715E-001;9.353209286928177E-002;5.959000904113054E-003;3.413659986108542E-003;
2.401333333333334E+009;1.534643024206162E-001;9.071826934814453E-002;5.939463619142771E-003;3.179467516019940E-003;
2.401500000000000E+009;1.535682231187820E-001;8.770874887704849E-002;6.322762463241816E-003;3.059572074562311E-003;
2.401666666666667E+009;1.539004445075989E-001;8.475353568792343E-002;6.334659177809954E-003;2.685997635126114E-003;
2.401833333333334E+009;1.541483253240585E-001;8.172451704740524E-002;6.293616257607937E-003;2.505675423890352E-003;
2.402000000000000E+009;1.547122746706009E-001;7.880676537752152E-002;6.291127298027277E-003;2.263542963191867E-003;
2.402166666666667E+009;1.554613113403320E-001;7.599253952503204E-002;6.154464557766914E-003;2.016798127442598E-003;
2.402333333333334E+009;1.563751697540283E-001;7.319772243499756E-002;6.355350837111473E-003;1.814264804124832E-003;
2.402500000000000E+009;1.573715507984161E-001;7.039895653724670E-002;6.389775313436985E-003;1.746407244354487E-003;
2.402666666666667E+009;1.583610624074936E-001;6.781613081693649E-002;6.342641077935696E-003;1.269243308342993E-003;
2.402833333333334E+009;1.595741957426071E-001;6.516373902559280E-002;6.358503364026547E-003;1.127421972341836E-003;
2.403000000000000E+009;1.610816568136215E-001;6.251399219036102E-002;6.356847472488880E-003;1.009345054626465E-003;
2.403166666666667E+009;1.628591418266296E-001;6.005449593067169E-002;6.395446602255106E-003;7.954264874570072E-004;
2.403333333333334E+009;1.642877757549286E-001;5.765731260180473E-002;6.533964537084103E-003;6.448535714298487E-004;
2.403500000000000E+009;1.661175191402435E-001;5.544143915176392E-002;6.422396283596754E-003;5.205513443797827E-004;
2.403666666666667E+009;1.680579036474228E-001;5.317470431327820E-002;6.510761100798845E-003;4.238955152686685E-004;
2.403833333333334E+009;1.698131859302521E-001;5.094278976321220E-002;6.623921450227499E-003;1.033251555782044E-005;
2.404000000000000E+009;1.716958284378052E-001;4.896017909049988E-002;6.542795803397894E-003;-9.772679914021865E-005;
2.404166666666667E+009;1.734360307455063E-001;4.742449149489403E-002;6.433719769120216E-003;-3.864285245072097E-004;
2.404333333333334E+009;1.754488646984100E-001;4.557338356971741E-002;6.495865527540445E-003;-6.530631799250841E-004;
2.404500000000000E+009;1.770390868186951E-001;4.395702853798866E-002;6.492125336080790E-003;-8.831209270283580E-004;
2.404666666666667E+009;1.790072917938232E-001;4.254721850156784E-002;6.240004673600197E-003;-1.051564584486187E-003;
2.404833333333334E+009;1.808444708585739E-001;4.116890579462051E-002;6.487977690994740E-003;-1.265059341676533E-003;
2.405000000000000E+009;1.825930178165436E-001;4.051360115408897E-002;6.164681166410446E-003;-1.530189416371286E-003;
2.405166666666667E+009;1.842584609985352E-001;3.972739353775978E-002;6.059668492525816E-003;-1.815992174670100E-003;
2.405333333333334E+009;1.858848780393601E-001;3.913742676377296E-002;6.046813447028399E-003;-1.884283148683608E-003;
2.405500000000000E+009;1.875171214342117E-001;3.856798633933067E-002;5.930334329605103E-003;-2.057313220575452E-003;
2.405666666666667E+009;1.891279071569443E-001;3.827396035194397E-002;5.893502384424210E-003;-1.985295442864299E-003;
2.405833333333334E+009;1.905885487794876E-001;3.794607147574425E-002;5.649092141538858E-003;-2.332689240574837E-003;
2.406000000000000E+009;1.919217556715012E-001;3.782169148325920E-002;5.621507298201323E-003;-2.348692389205098E-003;
2.406166666666667E+009;1.932221949100494E-001;3.765419498085976E-002;5.573662463575602E-003;-2.562390407547355E-003;
2.406333333333334E+009;1.944861412048340E-001;3.784182295203209E-002;5.286056548357010E-003;-2.925636712461710E-003;
2.406500000000000E+009;1.950207799673080E-001;3.774844482541084E-002;5.383577197790146E-003;-2.826705109328032E-003;
2.406666666666667E+009;1.965951919555664E-001;3.811338171362877E-002;5.078240763396025E-003;-3.032177221029997E-003;
2.406833333333334E+009;1.972075998783112E-001;3.819085285067558E-002;5.024493206292391E-003;-3.174498444423080E-003;
2.407000000000000E+009;1.976222991943359E-001;3.860380873084068E-002;4.934446420520544E-003;-3.192086471244693E-003;
2.407166666666667E+009;1.981579065322876E-001;3.870103508234024E-002;5.000224336981773E-003;-3.135006409138441E-003;
2.407333333333334E+009;1.985091418027878E-001;3.922414779663086E-002;4.853015765547752E-003;-3.237510100007057E-003;
2.407500000000000E+009;1.985521316528320E-001;3.940398246049881E-002;4.783299751579762E-003;-3.536976641044021E-003;
2.407666666666667E+009;1.987603902816773E-001;3.977437317371368E-002;4.779374226927757E-003;-3.557991003617644E-003;
2.407833333333334E+009;1.983577013015747E-001;3.990028798580170E-002;4.410491790622473E-003;-3.680903697386384E-003;
2.408000000000000E+009;1.981860101222992E-001;3.999444097280502E-002;4.521016497164965E-003;-3.629606682807207E-003;
2.408166666666667E+009;1.978237181901932E-001;4.030757024884224E-002;4.691113717854023E-003;-3.954999614506960E-003;
2.408333333333334E+009;1.974910646677017E-001;3.993067145347595E-002;4.475903697311878E-003;-3.877269802615047E-003;
2.408500000000000E+009;1.971557587385178E-001;3.998517245054245E-002;4.320544656366110E-003;-4.178517032414675E-003;
2.408666666666667E+009;1.956470012664795E-001;4.004071280360222E-002;4.600203596055508E-003;-4.188133403658867E-003;
2.408833333333334E+009;1.955172419548035E-001;3.927195817232132E-002;4.331436008214951E-003;-4.209741018712521E-003;
2.409000000000000E+009;1.945365369319916E-001;3.880750760436058E-002;4.320489708334208E-003;-4.359063226729631E-003;
2.409166666666667E+009;1.934170275926590E-001;3.771361336112022E-002;4.356236662715673E-003;-4.359642043709755E-003;
2.409333333333334E+009;1.924905627965927E-001;3.737647831439972E-002;4.269333556294441E-003;-4.708193708211184E-003;
2.409500000000000E+009;1.914009749889374E-001;3.635407984256744E-002;4.206562880426645E-003;-4.875621292740107E-003;
2.409666666666667E+009;1.903074383735657E-001;3.525823354721069E-002;4.115769173949957E-003;-4.986947402358055E-003;
2.409833333333334E+009;1.890042722225189E-001;3.409578278660774E-002;4.010412376374006E-003;-5.290884058922529E-003;
2.410000000000000E+009;1.879296451807022E-001;3.251372650265694E-002;3.991655539721251E-003;-5.662981420755386E-003;
2.410166666666667E+009;1.868529766798019E-001;3.087735734879971E-002;3.768453840166330E-003;-5.627037025988102E-003;
2.410333333333334E+009;1.856964826583862E-001;2.927984297275543E-002;3.483427921310067E-003;-5.914278328418732E-003;
2.410500000000000E+009;1.844243109226227E-001;2.746580913662911E-002;3.433529753237963E-003;-6.159982644021511E-003;
2.410666666666667E+009;1.833606213331223E-001;2.537702955305576E-002;3.344985656440258E-003;-6.278532557189465E-003;
2.410833333333334E+009;1.825928539037705E-001;2.313323691487312E-002;3.019294468685985E-003;-6.411395501345396E-003;
2.411000000000000E+009;1.814991831779480E-001;2.107669971883297E-002;2.710958477109671E-003;-6.803637836128473E-003;
2.411166666666667E+009;1.806359440088272E-001;1.872140541672707E-002;2.591908210888505E-003;-6.742973346263170E-003;
2.411333333333334E+009;1.797010004520416E-001;1.640870608389378E-002;2.253670711070299E-003;-7.022387348115444E-003;
2.411500000000000E+009;1.792568415403366E-001;1.369599997997284E-002;1.935375388711691E-003;-7.136844564229250E-003;
2.411666666666667E+009;1.786786466836929E-001;1.117719989269972E-002;1.606552395969629E-003;-7.051138207316399E-003;
2.411833333333334E+009;1.784431636333466E-001;8.878510445356369E-003;1.328383223153651E-003;-7.434064056724310E-003;
2.412000000000000E+009;1.782554239034653E-001;6.066304631531239E-003;1.153514953330159E-003;-7.366187870502472E-003;
2.412166666666667E+009;1.782484054565430E-001;3.758722450584173E-003;7.514336029998958E-004;-7.391325663775206E-003;
2.412333333333334E+009;1.779826134443283E-001;7.317592389881611E-004;6.182526121847332E-004;-7.420051377266645E-003;
2.412500000000000E+009;1.785101592540741E-001;-1.799515215680003E-003;1.409871474606916E-004;-7.411791477352381E-003;
2.412666666666667E+009;1.789060533046722E-001;-4.681952297687531E-003;-2.432142646284774E-004;-7.368868216872215E-003;
2.412833333333334E+009;1.794819682836533E-001;-7.171706762164831E-003;-3.674918261822313E-004;-7.279079407453537E-003;
2.413000000000000E+009;1.800207495689392E-001;-9.861398488283157E-003;-7.700443966314197E-004;-7.363433018326759E-003;
2.413166666666667E+009;1.807390749454498E-001;-1.227624621242285E-002;-1.051782513968647E-003;-7.266958244144917E-003;
2.413333333333334E+009;1.816038787364960E-001;-1.496517471969128E-002;-1.313204527832568E-003;-7.047174964100123E-003;
2.413500000000000E+009;1.824852675199509E-001;-1.756731793284416E-002;-1.586855505593121E-003;-7.034259848296642E-003;
2.413666666666667E+009;1.838108748197556E-001;-1.985638961195946E-002;-1.730578485876322E-003;-6.953729782253504E-003;
2.413833333333334E+009;1.848663985729218E-001;-2.233930118381977E-002;-2.056855708360672E-003;-6.765104830265045E-003;
2.414000000000000E+009;1.859354674816132E-001;-2.455081418156624E-002;-2.287188777700067E-003;-6.596816238015890E-003;
2.414166666666667E+009;1.872607916593552E-001;-2.658218145370483E-002;-2.358572790399194E-003;-6.523313932120800E-003;
2.414333333333334E+009;1.885259747505188E-001;-2.874944731593132E-002;-2.744723577052355E-003;-6.572778802365065E-003;
2.414500000000000E+009;1.899489909410477E-001;-3.056234121322632E-002;-3.033932764083147E-003;-6.412946153432131E-003;
2.414666666666667E+009;1.912847608327866E-001;-3.229070082306862E-002;-3.065033815801144E-003;-6.271312944591045E-003;
2.414833333333334E+009;1.925261318683624E-001;-3.391234949231148E-002;-3.399576758965850E-003;-6.052874960005283E-003;
2.415000000000000E+009;1.938585340976715E-001;-3.540623560547829E-002;-3.488845191895962E-003;-6.023915950208902E-003;
2.415166666666667E+009;1.953116059303284E-001;-3.660829737782478E-002;-3.743058303371072E-003;-5.908651277422905E-003;
2.415333333333334E+009;1.968787312507629E-001;-3.766358271241188E-002;-3.980538807809353E-003;-5.706434603780508E-003;
2.415500000000000E+009;1.980401724576950E-001;-3.864812105894089E-002;-3.995566163212061E-003;-5.485746543854475E-003;
2.415666666666667E+009;1.992822140455246E-001;-3.960413858294487E-002;-4.349684342741966E-003;-5.455125123262405E-003;
2.415833333333334E+009;2.004670053720474E-001;-4.043676704168320E-002;-4.403525497764349E-003;-5.299757234752178E-003;
2.416000000000000E+009;2.015586644411087E-001;-4.107216745615006E-002;-4.664270207285881E-003;-5.095377564430237E-003;
2.416166666666667E+009;2.024210840463638E-001;-4.181692749261856E-002;-4.708020947873592E-003;-4.800744820386171E-003;
2.416333333333334E+009;2.033585160970688E-001;-4.206922650337219E-002;-5.030293483287096E-003;-4.494925495237112E-003;
2.416500000000000E+009;2.041583508253098E-001;-4.232406988739967E-002;-5.067064892500639E-003;-4.573112353682518E-003;
2.416666666666667E+009;2.046946436166763E-001;-4.274280741810799E-002;-5.214624106884003E-003;-4.240993876010180E-003;
2.416833333333334E+009;2.051112353801727E-001;-4.269198700785637E-002;-5.214141216129065E-003;-4.095052368938923E-003;
2.417000000000000E+009;2.055507153272629E-001;-4.284114018082619E-002;-5.363831762224436E-003;-3.752979682758451E-003;
2.417166666666667E+009;2.054959237575531E-001;-4.263313114643097E-002;-5.293135531246662E-003;-3.784189932048321E-003;
2.417333333333334E+009;2.054761648178101E-001;-4.239146038889885E-002;-5.464380141347647E-003;-3.615690395236015E-003;
2.417500000000000E+009;2.054538726806641E-001;-4.220353439450264E-002;-5.503182299435139E-003;-3.309021005406976E-003;
2.417666666666667E+009;2.051267772912979E-001;-4.190804809331894E-002;-5.735029000788927E-003;-2.963666338473558E-003;
2.417833333333334E+009;2.048643529415131E-001;-4.156449809670448E-002;-5.587012507021427E-003;-2.939392114058137E-003;
2.418000000000000E+009;2.044921666383743E-001;-4.107195883989334E-002;-5.848713684827089E-003;-2.669825218617916E-003;
2.418166666666667E+009;2.038248181343079E-001;-4.076541587710381E-002;-5.793987773358822E-003;-2.431118860840797E-003;
2.418333333333334E+009;2.029687762260437E-001;-4.047900810837746E-002;-5.784309934824705E-003;-2.306595910340548E-003;
2.418500000000000E+009;2.020022869110107E-001;-4.030098766088486E-002;-6.012328434735537E-003;-1.976675819605589E-003;
2.418666666666667E+009;2.012817859649658E-001;-3.994874283671379E-002;-5.849192850291729E-003;-1.871008775196970E-003;
2.418833333333334E+009;2.000960856676102E-001;-3.990203887224197E-002;-5.812970921397209E-003;-1.817978452891111E-003;
2.419000000000000E+009;1.985461264848709E-001;-3.986644744873047E-002;-5.849970970302820E-003;-1.527981366962194E-003;
2.419166666666667E+009;1.973125189542770E-001;-4.006964340806007E-002;-5.847504362463951E-003;-1.358946436084807E-003;
2.419333333333334E+009;1.960132122039795E-001;-4.012371599674225E-002;-5.773878190666437E-003;-1.153972116298974E-003;
2.419500000000000E+009;1.944357752799988E-001;-4.036979749798775E-002;-5.607651546597481E-003;-9.480645530857146E-004;
2.419666666666667E+009;1.928854286670685E-001;-4.094237089157105E-002;-5.782238207757473E-003;-9.391485364176333E-004;
2.419833333333334E+009;1.909971684217453E-001;-4.129385203123093E-002;-5.687254946678877E-003;-8.526936871930957E-004;
2.420000000000000E+009;1.894617527723312E-001;-4.208945110440254E-002;-5.697547923773527E-003;-7.837188313715160E-004;
2.420166666666667E+009;1.875986307859421E-001;-4.281469061970711E-002;-5.716244690120220E-003;-5.491549964062870E-004;
2.420333333333334E+009;1.858539283275604E-001;-4.385880753397942E-002;-5.666408222168684E-003;-5.575567483901978E-004;
2.420500000000000E+009;1.838989704847336E-001;-4.514817893505096E-002;-5.839071236550808E-003;-4.535002808552235E-004;
2.420666666666667E+009;1.821987181901932E-001;-4.616663977503777E-002;-5.811860319226980E-003;-2.308109833393246E-004;
2.420833333333334E+009;1.804161965847015E-001;-4.745700955390930E-002;-5.960273090749979E-003;-3.017585258930922E-004;
2.421000000000000E+009;1.787742674350739E-001;-4.891534149646759E-002;-5.792324896901846E-003;-3.389445191714913E-005;
2.421166666666667E+009;1.770843565464020E-001;-5.054859817028046E-002;-5.849675741046667E-003;2.473082568030804E-004;
2.421333333333334E+009;1.751280575990677E-001;-5.231841653585434E-002;-5.887683015316725E-003;3.668285498861224E-004;
2.421500000000000E+009;1.736262589693070E-001;-5.425541102886200E-002;-5.799638573080301E-003;5.321858916431665E-004;
2.421666666666667E+009;1.719641387462616E-001;-5.617214366793633E-002;-5.841356236487627E-003;5.395794869400561E-004;
2.421833333333334E+009;1.709027439355850E-001;-5.801893025636673E-002;-5.846794229000807E-003;9.885797044262290E-004;
2.422000000000000E+009;1.690974235534668E-001;-5.983200296759605E-002;-5.943886470049620E-003;8.998044067993760E-004;
2.422166666666667E+009;1.683445423841476E-001;-6.232681870460510E-002;-5.732707213610411E-003;1.240165089257062E-003;
2.422333333333334E+009;1.671630740165710E-001;-6.443729251623154E-002;-5.812244955450296E-003;1.399714383296669E-003;
2.422500000000000E+009;1.661750227212906E-001;-6.646448373794556E-002;-5.835450720041990E-003;1.567338127642870E-003;
2.422666666666667E+009;1.652362346649170E-001;-6.885671615600586E-002;-5.669472739100456E-003;1.653827144764364E-003;
2.422833333333334E+009;1.645940095186234E-001;-7.102874666452408E-002;-5.607906263321638E-003;1.846794737502933E-003;
2.423000000000000E+009;1.638818979263306E-001;-7.332758605480194E-002;-5.634672474116087E-003;1.969930715858936E-003;
2.423166666666667E+009;1.634218692779541E-001;-7.540227472782135E-002;-5.446636117994785E-003;2.159865107387304E-003;
2.423333333333334E+009;1.628951728343964E-001;-7.756156474351883E-002;-5.424019880592823E-003;2.257546642795205E-003;
2.423500000000000E+009;1.629326939582825E-001;-7.957968860864639E-002;-5.324176978319883E-003;2.344183856621385E-003;
2.423666666666667E+009;1.628052294254303E-001;-8.174923807382584E-002;-5.349616985768080E-003;2.500738250091672E-003;
2.423833333333334E+009;1.626919955015183E-001;-8.373937010765076E-002;-5.232889205217362E-003;2.640118123963475E-003;
2.424000000000000E+009;1.628572940826416E-001;-8.584918826818466E-002;-5.210552830249071E-003;2.814534353092313E-003;
2.424166666666667E+009;1.629963517189026E-001;-8.771585673093796E-002;-4.992360714823008E-003;2.903731539845467E-003;
2.424333333333334E+009;1.632121652364731E-001;-8.941477537155151E-002;-4.995972383767366E-003;3.041689051315188E-003;
2.424500000000000E+009;1.636267602443695E-001;-9.130947291851044E-002;-4.909440409392119E-003;3.470189869403839E-003;
2.424666666666667E+009;1.639983803033829E-001;-9.288893640041351E-002;-4.900066647678614E-003;3.462814027443528E-003;
2.424833333333334E+009;1.646545082330704E-001;-9.441313147544861E-002;-4.603424575179815E-003;3.659124253317714E-003;
2.425000000000000E+009;1.650847643613815E-001;-9.583926945924759E-002;-4.744694102555513E-003;3.685815492644906E-003;
2.425166666666667E+009;1.656582951545715E-001;-9.709260612726212E-002;-4.547046031802893E-003;3.820999059826136E-003;
2.425333333333334E+009;1.661740988492966E-001;-9.827782958745956E-002;-4.488217644393444E-003;4.104461055248976E-003;
2.425500000000000E+009;1.667876392602921E-001;-9.936263412237167E-002;-4.416025709360838E-003;4.242623690515757E-003;
2.425666666666667E+009;1.673511266708374E-001;-1.003079414367676E-001;-4.084718413650990E-003;4.308494739234448E-003;
2.425833333333334E+009;1.678835153579712E-001;-1.011665910482407E-001;-3.949986305087805E-003;4.510741215199232E-003;
2.426000000000000E+009;1.685872524976730E-001;-1.016619727015495E-001;-3.988875541836023E-003;4.608008079230785E-003;
2.426166666666667E+009;1.692221015691757E-001;-1.023405343294144E-001;-3.693920327350497E-003;4.792027175426483E-003;
2.426333333333334E+009;1.696605086326599E-001;-1.030451580882072E-001;-3.612851025536656E-003;4.899815656244755E-003;
2.426500000000000E+009;1.702325195074081E-001;-1.032124161720276E-001;-3.520551370456815E-003;5.214069504290819E-003;
2.426666666666667E+009;1.707678884267807E-001;-1.036757975816727E-001;-3.194483928382397E-003;5.320167634636164E-003;
2.426833333333334E+009;1.713227033615112E-001;-1.038688197731972E-001;-3.107642754912376E-003;5.389222409576178E-003;
2.427000000000000E+009;1.715412884950638E-001;-1.041315943002701E-001;-2.906783716753125E-003;5.458272062242031E-003;
2.427166666666667E+009;1.717786192893982E-001;-1.041840463876724E-001;-2.667694818228483E-003;5.384837277233601E-003;
2.427333333333334E+009;1.719001978635788E-001;-1.044017076492310E-001;-2.322739223018289E-003;5.412907805293798E-003;
2.427500000000000E+009;1.719219535589218E-001;-1.045342758297920E-001;-2.118216129019857E-003;5.495864897966385E-003;
2.427666666666667E+009;1.718110740184784E-001;-1.043275967240334E-001;-2.058037556707859E-003;5.512830801308155E-003;
