# Version 1.00
#
freq[Hz];re:Trc1_S11;im:Trc1_S11;re:Trc2_S21;im:Trc2_S21;
2.400000000000000E+009;1.547249853610992E-001;1.112996712327004E-001;5.476366262882948E-003;4.824955947697163E-003;
2.400166666666667E+009;1.539913415908814E-001;1.091821938753128E-001;5.461344495415688E-003;4.564517177641392E-003;
2.400333333333334E+009;1.539190709590912E-001;1.070352122187614E-001;5.597927607595921E-003;4.324064590036869E-003;
2.400500000000000E+009;1.536711901426315E-001;1.042124480009079E-001;5.618087016046047E-003;4.254200495779514E-003;
2.400666666666667E+009;1.534797698259354E-001;1.020675972104073E-001;5.830440204590559E-003;3.909156657755375E-003;
2.400833333333334E+009;1.531554311513901E-001;9.906788170337677E-002;5.771095398813486E-003;3.623408498242497E-003;
2.401000000000000E+009;1.532323807477951E-001;9.611715376377106E-002;5.999795161187649E-003;3.582983743399382E-003;
2.401166666666667E+009;1.530162543058395E-001;9.342030435800552E-002;5.991089623421431E-003;3.353430191054940E-003;
2.401333333333334E+009;1.531726568937302E-001;9.060472995042801E-002;6.145038176327944E-003;3.026732942089438E-003;
2.401500000000000E+009;1.534029245376587E-001;8.745883405208588E-002;6.198835093528032E-003;2.836692612618208E-003;
2.401666666666667E+009;1.534525454044342E-001;8.461948484182358E-002;6.384402979165316E-003;2.693138085305691E-003;
2.401833333333334E+009;1.539729684591293E-001;8.166281133890152E-002;6.321650464087725E-003;2.355548785999417E-003;
2.402000000000000E+009;1.544862389564514E-001;7.871786504983902E-002;6.373203359544277E-003;2.316256752237678E-003;
2.402166666666667E+009;1.552806794643402E-001;7.593793421983719E-002;6.202126387506723E-003;2.025934867560864E-003;
2.402333333333334E+009;1.560764759778976E-001;7.284834235906601E-002;6.482853088527918E-003;1.788542373105884E-003;
2.402500000000000E+009;1.570194065570831E-001;7.025816291570664E-002;6.298188585788012E-003;1.698566484265029E-003;
2.402666666666667E+009;1.581372618675232E-001;6.787548214197159E-002;6.445008330047131E-003;1.440290594473481E-003;
2.402833333333334E+009;1.594838351011276E-001;6.516572088003159E-002;6.482837256044149E-003;1.131654833443463E-003;
2.403000000000000E+009;1.608347892761231E-001;6.239163503050804E-002;6.530779879540205E-003;9.528863010928035E-004;
2.403166666666667E+009;1.626686900854111E-001;6.001319736242294E-002;6.433042231947184E-003;7.497894694097340E-004;
2.403333333333334E+009;1.641417890787125E-001;5.746295675635338E-002;6.508487276732922E-003;7.583572296425700E-004;
2.403500000000000E+009;1.659423857927322E-001;5.541917681694031E-002;6.527751684188843E-003;4.075350007042289E-004;
2.403666666666667E+009;1.677508503198624E-001;5.316212773323059E-002;6.609253585338593E-003;2.220849273726344E-004;
2.403833333333334E+009;1.695630997419357E-001;5.101685598492622E-002;6.552577950060368E-003;5.065655568614602E-005;
2.404000000000000E+009;1.712519377470017E-001;4.896342009305954E-002;6.592144723981619E-003;-1.045507524395362E-004;
2.404166666666667E+009;1.733379811048508E-001;4.743573442101479E-002;6.625380367040634E-003;-5.079778493382037E-004;
2.404333333333334E+009;1.750535666942596E-001;4.550253972411156E-002;6.575759034603834E-003;-6.138216704130173E-004;
2.404500000000000E+009;1.769183427095413E-001;4.381924495100975E-002;6.528976839035749E-003;-8.876895299181342E-004;
2.404666666666667E+009;1.786767095327377E-001;4.276644811034203E-002;6.505786906927824E-003;-9.944466874003410E-004;
2.404833333333334E+009;1.806412190198898E-001;4.147325456142426E-002;6.468467880040407E-003;-1.312885433435440E-003;
2.405000000000000E+009;1.822476983070374E-001;4.057106003165245E-002;6.298236083239317E-003;-1.406495925039053E-003;
2.405166666666667E+009;1.840396076440811E-001;3.975189104676247E-002;6.264988798648119E-003;-1.796397147700191E-003;
2.405333333333334E+009;1.856057792901993E-001;3.913896530866623E-002;6.199170835316181E-003;-2.028054324910045E-003;
2.405500000000000E+009;1.873030364513397E-001;3.870106115937233E-002;6.077311467379332E-003;-2.077809302136302E-003;
2.405666666666667E+009;1.888934969902039E-001;3.826863318681717E-002;5.827380809932947E-003;-2.336291130632162E-003;
2.405833333333334E+009;1.904463469982147E-001;3.806458413600922E-002;5.725479684770107E-003;-2.648567548021674E-003;
2.406000000000000E+009;1.917319446802139E-001;3.792302310466766E-002;5.623317323625088E-003;-2.558324486017227E-003;
2.406166666666667E+009;1.929719895124435E-001;3.775006532669067E-002;5.395863205194473E-003;-2.706554951146245E-003;
2.406333333333334E+009;1.941353827714920E-001;3.794723376631737E-002;5.347250495105982E-003;-2.796809189021587E-003;
2.406500000000000E+009;1.952099651098251E-001;3.815198689699173E-002;5.174834281206131E-003;-3.042661352083087E-003;
2.406666666666667E+009;1.960196346044540E-001;3.828809410333633E-002;5.236742552369833E-003;-3.063304116949439E-003;
2.406833333333334E+009;1.969329267740250E-001;3.858483955264092E-002;5.059940740466118E-003;-3.122990950942040E-003;
2.407000000000000E+009;1.975233554840088E-001;3.893061727285385E-002;4.909522831439972E-003;-3.163552843034267E-003;
2.407166666666667E+009;1.980821639299393E-001;3.901816159486771E-002;5.047333892434835E-003;-3.371001221239567E-003;
2.407333333333334E+009;1.982092410326004E-001;3.941551968455315E-002;4.917634185403585E-003;-3.433238249272108E-003;
2.407500000000000E+009;1.983755975961685E-001;3.976039960980415E-002;4.773142281919718E-003;-3.525653854012489E-003;
2.407666666666667E+009;1.985355019569397E-001;3.986634686589241E-002;4.767699632793665E-003;-3.635309869423509E-003;
2.407833333333334E+009;1.981799751520157E-001;4.015382751822472E-002;4.709713626652956E-003;-3.690964542329311E-003;
2.408000000000000E+009;1.983755081892014E-001;4.035880416631699E-002;4.608181305229664E-003;-3.851054469123483E-003;
2.408166666666667E+009;1.977071017026901E-001;4.039318114519119E-002;4.655429162085056E-003;-4.061503801494837E-003;
2.408333333333334E+009;1.974590867757797E-001;4.015768319368362E-002;4.360031336545944E-003;-3.929849714040756E-003;
2.408500000000000E+009;1.968746483325958E-001;4.011250287294388E-002;4.307539202272892E-003;-4.082412924617529E-003;
2.408666666666667E+009;1.961641311645508E-001;3.989333659410477E-002;4.315567668527365E-003;-4.204861354082823E-003;
2.408833333333334E+009;1.954556107521057E-001;3.957726433873177E-002;4.423042293637991E-003;-4.332730080932379E-003;
2.409000000000000E+009;1.945015639066696E-001;3.891579806804657E-002;4.407053347676992E-003;-4.414673894643784E-003;
2.409166666666667E+009;1.934867799282074E-001;3.830700367689133E-002;4.220595583319664E-003;-4.674288444221020E-003;
2.409333333333334E+009;1.924101412296295E-001;3.751570358872414E-002;4.266966134309769E-003;-4.831364378333092E-003;
2.409500000000000E+009;1.913423836231232E-001;3.645976632833481E-002;4.339212551712990E-003;-4.999014083296061E-003;
2.409666666666667E+009;1.901193857192993E-001;3.521829470992088E-002;4.130893386900425E-003;-5.127897486090660E-003;
2.409833333333334E+009;1.889714002609253E-001;3.418580070137978E-002;4.049063194543123E-003;-5.429991520941258E-003;
2.410000000000000E+009;1.878746598958969E-001;3.274947404861450E-002;3.904625307768583E-003;-5.661548580974340E-003;
2.410166666666667E+009;1.867345571517944E-001;3.098375163972378E-002;3.850136883556843E-003;-5.903609562665224E-003;
2.410333333333334E+009;1.855487972497940E-001;2.936480939388275E-002;3.584068501368165E-003;-5.946975201368332E-003;
2.410500000000000E+009;1.843108981847763E-001;2.754899114370346E-002;3.379162866622210E-003;-6.270675919950008E-003;
2.410666666666667E+009;1.833169460296631E-001;2.534344047307968E-002;3.245875937864184E-003;-6.419177167117596E-003;
2.410833333333334E+009;1.823568791151047E-001;2.333271689713001E-002;2.927356632426381E-003;-6.662509869784117E-003;
2.411000000000000E+009;1.813470572233200E-001;2.121478877961636E-002;2.765333279967308E-003;-6.685462314635515E-003;
2.411166666666667E+009;1.804297566413879E-001;1.892361417412758E-002;2.455347916111350E-003;-6.846785545349121E-003;
2.411333333333334E+009;1.797630637884140E-001;1.643234491348267E-002;2.233039820566773E-003;-7.132201921194792E-003;
2.411500000000000E+009;1.791313886642456E-001;1.395892351865768E-002;1.925695105455816E-003;-7.129375822842121E-003;
2.411666666666667E+009;1.786584854125977E-001;1.145111303776503E-002;1.668923301622272E-003;-7.244122680276632E-003;
2.411833333333334E+009;1.781468540430069E-001;8.808651939034462E-003;1.294964808039367E-003;-7.375617045909166E-003;
2.412000000000000E+009;1.781677156686783E-001;6.201847922056913E-003;9.866951731964946E-004;-7.488082628697157E-003;
2.412166666666667E+009;1.779544651508331E-001;3.562414785847068E-003;7.235632510855794E-004;-7.306100800633431E-003;
2.412333333333334E+009;1.779770851135254E-001;9.980947943404317E-004;4.393740091472864E-004;-7.556654047220945E-003;
2.412500000000000E+009;1.783134341239929E-001;-1.708011026494205E-003;-2.502856841601897E-005;-7.502984721213579E-003;
2.412666666666667E+009;1.787749528884888E-001;-4.332025069743395E-003;-1.383896305924282E-004;-7.437346037477255E-003;
2.412833333333334E+009;1.792372465133667E-001;-7.075596600770950E-003;-5.850348970852792E-004;-7.394410669803619E-003;
2.413000000000000E+009;1.799658089876175E-001;-9.633691050112248E-003;-8.318957407027483E-004;-7.445145398378372E-003;
2.413166666666667E+009;1.806157678365707E-001;-1.219811663031578E-002;-1.066825236193836E-003;-7.270391564816237E-003;
2.413333333333334E+009;1.816869825124741E-001;-1.485870499163866E-002;-1.426053233444691E-003;-7.214738056063652E-003;
2.413500000000000E+009;1.825905144214630E-001;-1.742710731923580E-002;-1.779052661731839E-003;-7.128604687750340E-003;
2.413666666666667E+009;1.835659295320511E-001;-1.989670656621456E-002;-1.877789967693389E-003;-6.959786172956228E-003;
2.413833333333334E+009;1.848207414150238E-001;-2.212544716894627E-002;-2.068433212116361E-003;-6.882954388856888E-003;
2.414000000000000E+009;1.858647614717484E-001;-2.436067536473274E-002;-2.176416339352727E-003;-6.925135385245085E-003;
2.414166666666667E+009;1.873552501201630E-001;-2.642924711108208E-002;-2.469329163432121E-003;-6.510375533252955E-003;
2.414333333333334E+009;1.885430067777634E-001;-2.866584062576294E-002;-2.624057466164231E-003;-6.490512285381556E-003;
2.414500000000000E+009;1.897602081298828E-001;-3.035309724509716E-002;-3.028639126569033E-003;-6.483159027993679E-003;
2.414666666666667E+009;1.912008225917816E-001;-3.196748346090317E-002;-3.160754917189479E-003;-6.334004923701286E-003;
2.414833333333334E+009;1.925925761461258E-001;-3.358476608991623E-002;-3.406985895708203E-003;-6.015238352119923E-003;
2.415000000000000E+009;1.938620507717133E-001;-3.531023487448692E-002;-3.596404567360878E-003;-5.975694861263037E-003;
2.415166666666667E+009;1.954114884138107E-001;-3.640022501349449E-002;-3.741594264283776E-003;-5.828959867358208E-003;
2.415333333333334E+009;1.967203319072723E-001;-3.768582269549370E-002;-4.054443445056677E-003;-5.656331311911345E-003;
2.415500000000000E+009;1.981076449155808E-001;-3.840524703264237E-002;-4.028429742902517E-003;-5.496643017977476E-003;
2.415666666666667E+009;1.994263678789139E-001;-3.948340564966202E-002;-4.365029279142618E-003;-5.467321258038282E-003;
2.415833333333334E+009;2.004820108413696E-001;-4.026450589299202E-002;-4.555902909487486E-003;-5.167692899703980E-003;
2.416000000000000E+009;2.014786303043366E-001;-4.095112532377243E-002;-4.644148983061314E-003;-4.917506128549576E-003;
2.416166666666667E+009;2.026051580905914E-001;-4.156910628080368E-002;-4.861140623688698E-003;-4.968913737684488E-003;
2.416333333333334E+009;2.034019827842712E-001;-4.192664101719856E-002;-4.888244904577732E-003;-4.580914974212647E-003;
2.416500000000000E+009;2.041096091270447E-001;-4.215595126152039E-002;-5.052925553172827E-003;-4.554600454866886E-003;
2.416666666666667E+009;2.047583758831024E-001;-4.265022650361061E-002;-5.146405659615994E-003;-4.328107926994562E-003;
2.416833333333334E+009;2.052085846662521E-001;-4.248765856027603E-002;-5.377308465540409E-003;-4.169391468167305E-003;
2.417000000000000E+009;2.056550532579422E-001;-4.255512356758118E-002;-5.551974289119244E-003;-3.847824875265360E-003;
2.417166666666667E+009;2.055187672376633E-001;-4.239083081483841E-002;-5.537721794098616E-003;-3.750050906091929E-003;
2.417333333333334E+009;2.055555582046509E-001;-4.210614413022995E-002;-5.917857866734266E-003;-3.537280252203345E-003;
2.417500000000000E+009;2.055006027221680E-001;-4.198464006185532E-002;-5.713887978345156E-003;-3.184540895745158E-003;
2.417666666666667E+009;2.051818966865540E-001;-4.163851216435432E-002;-5.935313645750284E-003;-3.073198953643441E-003;
2.417833333333334E+009;2.049638181924820E-001;-4.126702621579170E-002;-5.760964471846819E-003;-2.879976993426681E-003;
2.418000000000000E+009;2.045084089040756E-001;-4.082396253943443E-002;-5.975970998406410E-003;-2.690070308744907E-003;
2.418166666666667E+009;2.038530409336090E-001;-4.060871154069901E-002;-5.813784431666136E-003;-2.397471806034446E-003;
2.418333333333334E+009;2.029902487993240E-001;-4.026684537529945E-002;-5.945911630988121E-003;-2.212307648733258E-003;
2.418500000000000E+009;2.021781206130981E-001;-3.998564183712006E-002;-5.918998736888170E-003;-2.014145720750094E-003;
2.418666666666667E+009;2.012208998203278E-001;-3.965765610337257E-002;-5.981709342449904E-003;-1.849952735938132E-003;
2.418833333333334E+009;2.000688761472702E-001;-3.958665579557419E-002;-5.978694651275873E-003;-1.530742039903998E-003;
2.419000000000000E+009;1.987197548151016E-001;-3.959991037845612E-002;-5.962466355413199E-003;-1.388489268720150E-003;
2.419166666666667E+009;1.975280940532684E-001;-3.967732191085815E-002;-5.973822902888060E-003;-1.205020933412015E-003;
2.419333333333334E+009;1.961016356945038E-001;-3.987047448754311E-002;-5.821324884891510E-003;-1.152964890934527E-003;
2.419500000000000E+009;1.945398449897766E-001;-4.011918231844902E-002;-5.740250926464796E-003;-9.556453442201018E-004;
2.419666666666667E+009;1.928391903638840E-001;-4.077080637216568E-002;-5.687276367098093E-003;-8.042476256377995E-004;
2.419833333333334E+009;1.910842806100845E-001;-4.118921980261803E-002;-5.780337844043970E-003;-8.014041814021766E-004;
2.420000000000000E+009;1.895148158073425E-001;-4.187486320734024E-002;-5.897009745240212E-003;-6.184329977259040E-004;
2.420166666666667E+009;1.878110617399216E-001;-4.274518787860870E-002;-5.755952093750238E-003;-4.776562564074993E-004;
2.420333333333334E+009;1.859231442213059E-001;-4.371374100446701E-002;-5.769602023065090E-003;-5.995412939228118E-004;
2.420500000000000E+009;1.842213869094849E-001;-4.482525959610939E-002;-5.768582224845886E-003;-4.920008359476924E-004;
2.420666666666667E+009;1.823599934577942E-001;-4.596558958292007E-002;-5.714518018066883E-003;-4.455325251910836E-004;
2.420833333333334E+009;1.805156618356705E-001;-4.737604036927223E-002;-5.807983223348856E-003;-9.284704719902948E-005;
2.421000000000000E+009;1.789551824331284E-001;-4.899590834975243E-002;-5.881514865905047E-003;9.810356277739629E-005;
2.421166666666667E+009;1.772897541522980E-001;-5.062257871031761E-002;-5.857668817043304E-003;1.436302118236199E-004;
2.421333333333334E+009;1.754578351974487E-001;-5.210874974727631E-002;-5.996381863951683E-003;4.183022829238325E-004;
2.421500000000000E+009;1.737981587648392E-001;-5.404284223914146E-002;-5.916644353419542E-003;5.365202669054270E-004;
2.421666666666667E+009;1.723366528749466E-001;-5.599041655659676E-002;-5.843050777912140E-003;6.227838457562029E-004;
2.421833333333334E+009;1.709493100643158E-001;-5.794050544500351E-002;-5.899497307837009E-003;8.811352890916169E-004;
2.422000000000000E+009;1.696098744869232E-001;-6.002254411578178E-002;-5.894796457141638E-003;8.502794662490487E-004;
2.422166666666667E+009;1.686112880706787E-001;-6.202248483896256E-002;-5.833972711116076E-003;1.219473895616829E-003;
2.422333333333334E+009;1.673510670661926E-001;-6.433360278606415E-002;-5.889303050935268E-003;1.322269323281944E-003;
2.422500000000000E+009;1.662929803133011E-001;-6.641041487455368E-002;-5.733763333410025E-003;1.693999860435724E-003;
2.422666666666667E+009;1.654945015907288E-001;-6.867618858814240E-002;-5.646257661283016E-003;1.873006462119520E-003;
2.422833333333334E+009;1.647842079401016E-001;-7.090478390455246E-002;-5.593581590801477E-003;1.773091382347047E-003;
2.423000000000000E+009;1.641424000263214E-001;-7.326445728540421E-002;-5.572517868131399E-003;2.062971238046885E-003;
2.423166666666667E+009;1.636542826890945E-001;-7.522815465927124E-002;-5.428952164947987E-003;2.109572989866138E-003;
2.423333333333334E+009;1.632393747568131E-001;-7.750663906335831E-002;-5.395416636019945E-003;2.312858588993549E-003;
2.423500000000000E+009;1.630544215440750E-001;-7.956545799970627E-002;-5.422779824584723E-003;2.455757698044181E-003;
2.423666666666667E+009;1.631365418434143E-001;-8.170618116855621E-002;-5.269411485642195E-003;2.717809053137898E-003;
2.423833333333334E+009;1.630267947912216E-001;-8.373520523309708E-002;-5.236497614532709E-003;2.808696823194623E-003;
2.424000000000000E+009;1.630562394857407E-001;-8.589685708284378E-002;-5.226443987339735E-003;2.900584833696485E-003;
2.424166666666667E+009;1.632506251335144E-001;-8.760310709476471E-002;-5.096023902297020E-003;3.125989111140370E-003;
2.424333333333334E+009;1.635232418775559E-001;-8.932001143693924E-002;-4.987228196114302E-003;3.214411903172731E-003;
2.424500000000000E+009;1.638507097959518E-001;-9.143944829702377E-002;-4.976540803909302E-003;3.249885514378548E-003;
2.424666666666667E+009;1.642721593379974E-001;-9.281024336814880E-002;-4.871797282248735E-003;3.391209524124861E-003;
2.424833333333334E+009;1.647997051477432E-001;-9.455315023660660E-002;-4.821438342332840E-003;3.627065801993012E-003;
2.425000000000000E+009;1.652905493974686E-001;-9.590928256511688E-002;-4.761594813317061E-003;3.928170539438725E-003;
2.425166666666667E+009;1.658648997545242E-001;-9.722574055194855E-002;-4.660412203520536E-003;4.106673412024975E-003;
2.425333333333334E+009;1.663633286952972E-001;-9.824255108833313E-002;-4.452725872397423E-003;4.196660127490759E-003;
2.425500000000000E+009;1.670148968696594E-001;-9.956064820289612E-002;-4.341232590377331E-003;4.273155238479376E-003;
2.425666666666667E+009;1.676176339387894E-001;-1.002588495612145E-001;-4.124361556023359E-003;4.497796762734652E-003;
2.425833333333334E+009;1.681276708841324E-001;-1.013829782605171E-001;-3.974369727075100E-003;4.570276942104101E-003;
2.426000000000000E+009;1.688246726989746E-001;-1.018623262643814E-001;-3.800591221079230E-003;4.875061567872763E-003;
2.426166666666667E+009;1.694754064083099E-001;-1.024603620171547E-001;-3.782981075346470E-003;5.031595472246409E-003;
2.426333333333334E+009;1.698475629091263E-001;-1.030070930719376E-001;-3.435388673096895E-003;5.092289298772812E-003;
2.426500000000000E+009;1.704412698745728E-001;-1.033411547541618E-001;-3.322948003187776E-003;5.336503963917494E-003;
2.426666666666667E+009;1.708898544311523E-001;-1.038474664092064E-001;-3.294994821771979E-003;5.320232827216387E-003;
2.426833333333334E+009;1.712895631790161E-001;-1.040820479393005E-001;-2.965496620163322E-003;5.441070068627596E-003;
2.427000000000000E+009;1.716665774583817E-001;-1.042278558015823E-001;-2.746602986007929E-003;5.451345350593329E-003;
2.427166666666667E+009;1.719845086336136E-001;-1.043702363967896E-001;-2.631724346429110E-003;5.548531655222178E-003;
2.427333333333334E+009;1.720791906118393E-001;-1.044843271374703E-001;-2.418326912447810E-003;5.586017854511738E-003;
2.427500000000000E+009;1.721125543117523E-001;-1.045846194028854E-001;-2.160388976335526E-003;5.710215307772160E-003;
2.427666666666667E+009;1.719554066658020E-001;-1.045985072851181E-001;-2.026139758527279E-003;5.635726265609264E-003;
