# Version 1.00
#
freq[Hz];re:Trc1_S11;im:Trc1_S11;re:Trc2_S21;im:Trc2_S21;
2.400000000000000E+009;1.548247486352921E-001;1.114173009991646E-001;5.853189155459404E-003;4.110066685825586E-003;
2.400166666666667E+009;1.545255035161972E-001;1.093246713280678E-001;6.389452144503593E-003;4.651234950870276E-003;
2.400333333333334E+009;1.539752781391144E-001;1.072018891572952E-001;5.778381135314703E-003;4.674523603171110E-003;
2.400500000000000E+009;1.534819006919861E-001;1.042260304093361E-001;5.054029636085033E-003;3.561257617548108E-003;
2.400666666666667E+009;1.537379175424576E-001;1.017331480979919E-001;6.550898309797049E-003;2.933460054919124E-003;
2.400833333333334E+009;1.530982851982117E-001;9.945246577262878E-002;5.605862010270357E-003;4.202232696115971E-003;
2.401000000000000E+009;1.530430316925049E-001;9.646520018577576E-002;5.586185026913881E-003;3.751921001821756E-003;
2.401166666666667E+009;1.528907269239426E-001;9.370733052492142E-002;5.865164566785097E-003;3.578220028430224E-003;
2.401333333333334E+009;1.530709415674210E-001;9.073172509670258E-002;6.091453135013580E-003;3.129172138869762E-003;
2.401500000000000E+009;1.531892865896225E-001;8.768509328365326E-002;6.180163007229567E-003;2.854321151971817E-003;
2.401666666666667E+009;1.535224914550781E-001;8.476437628269196E-002;6.208828184753656E-003;2.679944736883044E-003;
2.401833333333334E+009;1.537571251392365E-001;8.196400851011276E-002;6.348771043121815E-003;2.263428643345833E-003;
2.402000000000000E+009;1.544572860002518E-001;7.880786061286926E-002;6.272632163017988E-003;2.268795622512698E-003;
2.402166666666667E+009;1.553345322608948E-001;7.621532678604126E-002;6.315288133919239E-003;2.086255233734846E-003;
2.402333333333334E+009;1.559793055057526E-001;7.313249260187149E-002;6.444405764341354E-003;1.872604247182608E-003;
2.402500000000000E+009;1.571364253759384E-001;7.047884911298752E-002;6.529318634420633E-003;1.751546515151858E-003;
2.402666666666667E+009;1.580719947814941E-001;6.804790347814560E-002;6.439974531531334E-003;1.368279801681638E-003;
2.402833333333334E+009;1.595651656389237E-001;6.526495516300201E-002;6.364689208567143E-003;1.234572147950530E-003;
2.403000000000000E+009;1.610374003648758E-001;6.263484805822372E-002;6.531142629683018E-003;9.199956548400223E-004;
2.403166666666667E+009;1.628851145505905E-001;6.015970185399056E-002;6.453831680119038E-003;8.964674198068678E-004;
2.403333333333334E+009;1.641773283481598E-001;5.774065852165222E-002;6.408098153769970E-003;5.541892023757100E-004;
2.403500000000000E+009;1.660108864307404E-001;5.532613024115562E-002;6.676992867141962E-003;6.077961879782379E-004;
2.403666666666667E+009;1.677291840314865E-001;5.319434404373169E-002;6.676914636045694E-003;3.364426083862782E-004;
2.403833333333334E+009;1.696707010269165E-001;5.119855701923370E-002;6.525408476591110E-003;-5.246738874120638E-005;
2.404000000000000E+009;1.714088171720505E-001;4.902147129178047E-002;6.522933021187782E-003;-3.773508651647717E-004;
2.404166666666667E+009;1.734024137258530E-001;4.748205468058586E-002;6.597905419766903E-003;-5.425290437415242E-004;
2.404333333333334E+009;1.752048134803772E-001;4.565137252211571E-002;6.541631650179625E-003;-6.402286235243082E-004;
2.404500000000000E+009;1.771019995212555E-001;4.391832277178764E-002;6.549457088112831E-003;-8.626146591268480E-004;
2.404666666666667E+009;1.789952218532562E-001;4.280543699860573E-002;6.389133632183075E-003;-1.123368390835822E-003;
2.404833333333334E+009;1.808186769485474E-001;4.144496470689774E-002;6.466264370828867E-003;-1.211059396155179E-003;
2.405000000000000E+009;1.824875921010971E-001;4.073404520750046E-002;6.245535798370838E-003;-1.474916585721076E-003;
2.405166666666667E+009;1.842935830354691E-001;3.975306078791618E-002;6.046687718480825E-003;-1.804948435164988E-003;
2.405333333333334E+009;1.858884841203690E-001;3.919505327939987E-002;6.128704175353050E-003;-2.226006472483277E-003;
2.405500000000000E+009;1.875399351119995E-001;3.873619437217712E-002;6.040538661181927E-003;-2.091931179165840E-003;
2.405666666666667E+009;1.891355216503143E-001;3.818216919898987E-002;5.778443999588490E-003;-2.281255787238479E-003;
2.405833333333334E+009;1.905041486024857E-001;3.801405802369118E-002;5.738836247473955E-003;-2.509284997358918E-003;
2.406000000000000E+009;1.919233053922653E-001;3.789112344384193E-002;5.671712569892407E-003;-2.528541255742312E-003;
2.406166666666667E+009;1.931849271059036E-001;3.774815052747726E-002;5.496922880411148E-003;-2.716075861826539E-003;
2.406333333333334E+009;1.943422108888626E-001;3.788558766245842E-002;5.439040251076222E-003;-2.755706664174795E-003;
2.406500000000000E+009;1.954080015420914E-001;3.804846480488777E-002;5.295899696648121E-003;-2.848325762897730E-003;
2.406666666666667E+009;1.962671726942062E-001;3.815767168998718E-002;5.190241616219282E-003;-3.087497781962156E-003;
2.406833333333334E+009;1.970618069171906E-001;3.839311376214027E-002;4.978244658559561E-003;-3.135182429105043E-003;
2.407000000000000E+009;1.975815594196320E-001;3.885038197040558E-002;5.035986658185720E-003;-3.182429121807218E-003;
2.407166666666667E+009;1.981551051139832E-001;3.885341063141823E-002;4.939891863614321E-003;-3.355955472216010E-003;
2.407333333333334E+009;1.984287053346634E-001;3.931124880909920E-002;4.787954501807690E-003;-3.454612800851464E-003;
2.407500000000000E+009;1.985569745302200E-001;3.976352885365486E-002;4.794805776327848E-003;-3.610902931541205E-003;
2.407666666666667E+009;1.987275779247284E-001;3.981802612543106E-002;4.634319338947535E-003;-3.677471075206995E-003;
2.407833333333334E+009;1.983558535575867E-001;4.014123976230621E-002;4.539502318948507E-003;-3.466692054644227E-003;
2.408000000000000E+009;1.984310597181320E-001;4.019762575626373E-002;4.494677763432264E-003;-3.753829747438431E-003;
2.408166666666667E+009;1.979635953903198E-001;4.035286232829094E-002;4.430312663316727E-003;-3.976169973611832E-003;
2.408333333333334E+009;1.975913494825363E-001;4.020766913890839E-002;4.379760939627886E-003;-3.988452721387148E-003;
2.408500000000000E+009;1.969610750675201E-001;4.005098715424538E-002;4.438589792698622E-003;-4.208573140203953E-003;
2.408666666666667E+009;1.964512020349503E-001;4.009535163640976E-002;4.359291400760412E-003;-4.187372978776693E-003;
2.408833333333334E+009;1.956547498703003E-001;3.945707529783249E-002;4.254695959389210E-003;-4.273101221770048E-003;
2.409000000000000E+009;1.947336196899414E-001;3.883310779929161E-002;4.335708450525999E-003;-4.385781474411488E-003;
2.409166666666667E+009;1.937387287616730E-001;3.829802945256233E-002;4.184410441666842E-003;-4.667021799832583E-003;
2.409333333333334E+009;1.927139014005661E-001;3.752618283033371E-002;4.216763656586409E-003;-4.830125719308853E-003;
2.409500000000000E+009;1.915404945611954E-001;3.652600944042206E-002;4.169140476733446E-003;-4.944539628922939E-003;
2.409666666666667E+009;1.903948038816452E-001;3.534645214676857E-002;4.027028102427721E-003;-5.104434676468372E-003;
2.409833333333334E+009;1.891743540763855E-001;3.422972187399864E-002;3.947182558476925E-003;-5.382961593568325E-003;
2.410000000000000E+009;1.879873424768448E-001;3.267893940210342E-002;3.747001057490706E-003;-5.529890302568674E-003;
2.410166666666667E+009;1.867338120937347E-001;3.103031590580940E-002;3.790332237258554E-003;-5.635919049382210E-003;
2.410333333333334E+009;1.857659220695496E-001;2.925235778093338E-002;3.553615882992744E-003;-6.045606452971697E-003;
2.410500000000000E+009;1.844584941864014E-001;2.748773805797100E-002;3.362027928233147E-003;-6.217394024133682E-003;
2.410666666666667E+009;1.831820607185364E-001;2.523018047213554E-002;3.235563635826111E-003;-6.322897505015135E-003;
2.410833333333334E+009;1.824710518121719E-001;2.329084463417530E-002;3.088036784902215E-003;-6.579027511179447E-003;
2.411000000000000E+009;1.814214736223221E-001;2.096825279295445E-002;2.713297959417105E-003;-6.742959842085838E-003;
2.411166666666667E+009;1.806133091449738E-001;1.885074749588966E-002;2.394398674368858E-003;-6.897130515426397E-003;
2.411333333333334E+009;1.797242015600205E-001;1.614995114505291E-002;2.137744100764394E-003;-7.099511567503214E-003;
2.411500000000000E+009;1.790312677621841E-001;1.386764552444220E-002;1.937133842147887E-003;-7.114204578101635E-003;
2.411666666666667E+009;1.787622720003128E-001;1.145664881914854E-002;1.670835888944566E-003;-7.216470316052437E-003;
2.411833333333334E+009;1.781016886234283E-001;8.856480941176415E-003;1.376566011458635E-003;-7.289423607289791E-003;
2.412000000000000E+009;1.782966703176498E-001;6.038584280759096E-003;1.031708205118775E-003;-7.298352662473917E-003;
2.412166666666667E+009;1.780095100402832E-001;3.589483676478267E-003;7.129662553779781E-004;-7.402408868074417E-003;
2.412333333333334E+009;1.780872642993927E-001;7.625984144397080E-004;4.632590571418405E-004;-7.469418924301863E-003;
2.412500000000000E+009;1.784881204366684E-001;-1.969346310943365E-003;2.143788442481309E-004;-7.507431786507368E-003;
2.412666666666667E+009;1.788761019706726E-001;-4.317319951951504E-003;-1.311910600634292E-004;-7.415095344185829E-003;
2.412833333333334E+009;1.792517304420471E-001;-7.090739905834198E-003;-6.039605359546840E-004;-7.383021526038647E-003;
2.413000000000000E+009;1.799395382404327E-001;-9.936483576893807E-003;-8.492355118505657E-004;-7.413064129650593E-003;
2.413166666666667E+009;1.805304139852524E-001;-1.227623783051968E-002;-1.094157691113651E-003;-7.315096911042929E-003;
2.413333333333334E+009;1.816481202840805E-001;-1.500329095870256E-002;-1.347354031167924E-003;-7.057986222207546E-003;
2.413500000000000E+009;1.825886517763138E-001;-1.749965175986290E-002;-1.614317880012095E-003;-7.002928294241428E-003;
2.413666666666667E+009;1.837308853864670E-001;-2.002639696002007E-002;-1.828298321925104E-003;-7.014672271907330E-003;
2.413833333333334E+009;1.847704499959946E-001;-2.215549722313881E-002;-2.018523635342717E-003;-6.861282512545586E-003;
2.414000000000000E+009;1.860345453023911E-001;-2.443381026387215E-002;-2.305304165929556E-003;-6.657059770077467E-003;
2.414166666666667E+009;1.873316168785095E-001;-2.637759782373905E-002;-2.421084558591247E-003;-6.602516863495112E-003;
2.414333333333334E+009;1.885628402233124E-001;-2.855295687913895E-002;-2.669587032869458E-003;-6.411416456103325E-003;
2.414500000000000E+009;1.897890269756317E-001;-3.045821562409401E-002;-2.916142111644149E-003;-6.400316953659058E-003;
2.414666666666667E+009;1.911956220865250E-001;-3.204005956649780E-002;-3.093709703534842E-003;-6.163295358419418E-003;
2.414833333333334E+009;1.924896687269211E-001;-3.375370800495148E-002;-3.391718957573175E-003;-6.210362073034048E-003;
2.415000000000000E+009;1.939543187618256E-001;-3.519665077328682E-002;-3.651565406471491E-003;-5.983189679682255E-003;
2.415166666666667E+009;1.951404809951782E-001;-3.655037656426430E-002;-3.736845450475812E-003;-5.858888849616051E-003;
2.415333333333334E+009;1.966183185577393E-001;-3.781161457300186E-002;-3.901352873072028E-003;-5.548651795834303E-003;
2.415500000000000E+009;1.980403661727905E-001;-3.850441798567772E-002;-4.036581609398127E-003;-5.367671139538288E-003;
2.415666666666667E+009;1.993055492639542E-001;-3.963351994752884E-002;-4.216686822474003E-003;-5.250786896795034E-003;
2.415833333333334E+009;2.004968822002411E-001;-4.042609781026840E-002;-4.453176632523537E-003;-5.093649495393038E-003;
2.416000000000000E+009;2.015083134174347E-001;-4.096254333853722E-002;-4.527628421783447E-003;-5.009958520531654E-003;
2.416166666666667E+009;2.025582939386368E-001;-4.179454967379570E-002;-4.743452649563551E-003;-4.683671984821558E-003;
2.416333333333334E+009;2.033793777227402E-001;-4.193566367030144E-002;-4.934312310069799E-003;-4.544862080365419E-003;
2.416500000000000E+009;2.041225284337997E-001;-4.221715778112412E-002;-5.072217900305986E-003;-4.439021926373243E-003;
2.416666666666667E+009;2.048250585794449E-001;-4.259137064218521E-002;-5.239318124949932E-003;-4.154590889811516E-003;
2.416833333333334E+009;2.051236331462860E-001;-4.253579303622246E-002;-5.365941207855940E-003;-3.985228482633829E-003;
2.417000000000000E+009;2.055490165948868E-001;-4.263680428266525E-002;-5.392899736762047E-003;-3.896026173606515E-003;
2.417166666666667E+009;2.055725455284119E-001;-4.240938648581505E-002;-5.494608078151941E-003;-3.552270587533712E-003;
2.417333333333334E+009;2.055690586566925E-001;-4.226838424801827E-002;-5.577956791967154E-003;-3.530011279508472E-003;
2.417500000000000E+009;2.055105417966843E-001;-4.210502281785011E-002;-5.646739155054092E-003;-2.970843110233545E-003;
2.417666666666667E+009;2.051656693220139E-001;-4.167438298463821E-002;-5.754799116402865E-003;-2.971331123262644E-003;
2.417833333333334E+009;2.050074338912964E-001;-4.144212603569031E-002;-5.869875196367502E-003;-2.828473690897226E-003;
2.418000000000000E+009;2.044621109962463E-001;-4.085415229201317E-002;-5.787327885627747E-003;-2.655341522768140E-003;
2.418166666666667E+009;2.037365734577179E-001;-4.057356342673302E-002;-5.803046282380819E-003;-2.291023265570402E-003;
2.418333333333334E+009;2.029820829629898E-001;-4.033942893147469E-002;-5.881541408598423E-003;-2.057559322565794E-003;
2.418500000000000E+009;2.019961029291153E-001;-4.011165350675583E-002;-5.982869304716587E-003;-1.989190233871341E-003;
2.418666666666667E+009;2.011202871799469E-001;-3.993276506662369E-002;-5.854439921677113E-003;-1.678015105426312E-003;
2.418833333333334E+009;2.000738531351090E-001;-3.968089818954468E-002;-5.822675768285990E-003;-1.575426897034049E-003;
2.419000000000000E+009;1.987550258636475E-001;-3.973234817385674E-002;-5.701109766960144E-003;-1.337538356892765E-003;
2.419166666666667E+009;1.975856125354767E-001;-3.980459272861481E-002;-5.780835170298815E-003;-1.221654703840613E-003;
2.419333333333334E+009;1.960403919219971E-001;-3.998976945877075E-002;-5.790885537862778E-003;-1.182894688099623E-003;
2.419500000000000E+009;1.945286542177200E-001;-4.011287167668343E-002;-5.789000075310469E-003;-8.490927866660059E-004;
2.419666666666667E+009;1.927890181541443E-001;-4.083188250660896E-002;-5.769910290837288E-003;-8.381226216442883E-004;
2.419833333333334E+009;1.912709176540375E-001;-4.115784540772438E-002;-5.621138960123062E-003;-7.820095634087920E-004;
2.420000000000000E+009;1.894215792417526E-001;-4.205419868230820E-002;-5.706494208425283E-003;-7.300786674022675E-004;
2.420166666666667E+009;1.877776682376862E-001;-4.282493516802788E-002;-5.815562326461077E-003;-5.947653553448618E-004;
2.420333333333334E+009;1.859755218029022E-001;-4.378635063767433E-002;-5.708565004169941E-003;-3.921457973774523E-004;
2.420500000000000E+009;1.841160953044891E-001;-4.485962912440300E-002;-5.721838213503361E-003;-3.378267865628004E-004;
2.420666666666667E+009;1.824344247579575E-001;-4.579503461718559E-002;-5.730233155190945E-003;-2.268205571454018E-004;
2.420833333333334E+009;1.806233823299408E-001;-4.735122621059418E-002;-5.748004652559757E-003;-1.014304289128631E-004;
2.421000000000000E+009;1.789860129356384E-001;-4.892756044864655E-002;-5.934443790465593E-003;-1.763454565661959E-005;
2.421166666666667E+009;1.771980822086334E-001;-5.055500566959381E-002;-5.914308130741119E-003;2.980787830892950E-004;
2.421333333333334E+009;1.752934008836746E-001;-5.221582576632500E-002;-5.877119023352861E-003;4.179361858405173E-004;
2.421500000000000E+009;1.738094836473465E-001;-5.422561243176460E-002;-5.899460986256599E-003;6.111843977123499E-004;
2.421666666666667E+009;1.722804903984070E-001;-5.590058118104935E-002;-6.033188663423061E-003;6.415981915779412E-004;
2.421833333333334E+009;1.709774881601334E-001;-5.786308273673058E-002;-5.889607127755880E-003;8.437507203780115E-004;
2.422000000000000E+009;1.696126013994217E-001;-6.008040904998779E-002;-5.880755372345448E-003;1.152923679910600E-003;
2.422166666666667E+009;1.685082316398621E-001;-6.225609034299851E-002;-5.811354611068964E-003;1.223936094902456E-003;
2.422333333333334E+009;1.671088635921478E-001;-6.449659913778305E-002;-5.773177370429039E-003;1.385723589919508E-003;
2.422500000000000E+009;1.663106530904770E-001;-6.652160733938217E-002;-5.661284551024437E-003;1.665359130129218E-003;
2.422666666666667E+009;1.654546409845352E-001;-6.868817657232285E-002;-5.712794605642557E-003;1.700478373095393E-003;
2.422833333333334E+009;1.646833866834641E-001;-7.102340459823608E-002;-5.576335359364748E-003;1.729403855279088E-003;
2.423000000000000E+009;1.639812588691711E-001;-7.322277128696442E-002;-5.617379210889339E-003;1.966090872883797E-003;
2.423166666666667E+009;1.636514365673065E-001;-7.532686740159988E-002;-5.529968999326229E-003;2.200484974309802E-003;
2.423333333333334E+009;1.632872968912125E-001;-7.762190699577332E-002;-5.394580308347940E-003;2.327537396922708E-003;
2.423500000000000E+009;1.631869524717331E-001;-7.953365892171860E-002;-5.366183351725340E-003;2.481709700077772E-003;
2.423666666666667E+009;1.630583107471466E-001;-8.169472962617874E-002;-5.346585996448994E-003;2.475932938978076E-003;
2.423833333333334E+009;1.628264188766480E-001;-8.385681360960007E-002;-5.173035431653261E-003;2.573928330093622E-003;
2.424000000000000E+009;1.630753129720688E-001;-8.580081909894943E-002;-5.160870030522347E-003;2.761716023087502E-003;
2.424166666666667E+009;1.631114929914475E-001;-8.758227527141571E-002;-5.054952576756477E-003;3.170425072312355E-003;
2.424333333333334E+009;1.634305417537689E-001;-8.931361883878708E-002;-5.110629368573427E-003;3.178506391122937E-003;
2.424500000000000E+009;1.638331264257431E-001;-9.137949347496033E-002;-4.784873221069574E-003;3.292898414656520E-003;
2.424666666666667E+009;1.641667932271957E-001;-9.300169348716736E-002;-5.069182720035315E-003;3.440276952460408E-003;
2.424833333333334E+009;1.650542914867401E-001;-9.455123543739319E-002;-4.719508346170187E-003;3.435923717916012E-003;
2.425000000000000E+009;1.653672754764557E-001;-9.594304859638214E-002;-4.631463903933764E-003;3.634131047874689E-003;
2.425166666666667E+009;1.658284217119217E-001;-9.718625247478485E-002;-4.518799949437380E-003;3.809720976278186E-003;
2.425333333333334E+009;1.663291752338409E-001;-9.830313175916672E-002;-4.385072272270918E-003;4.041231237351894E-003;
2.425500000000000E+009;1.670342981815338E-001;-9.940550476312637E-002;-4.337641876190901E-003;4.411611706018448E-003;
2.425666666666667E+009;1.675534546375275E-001;-1.003345698118210E-001;-4.201815463602543E-003;4.466946236789227E-003;
2.425833333333334E+009;1.680965423583984E-001;-1.013199537992477E-001;-4.071834031492472E-003;4.545864649116993E-003;
2.426000000000000E+009;1.687346994876862E-001;-1.018046140670776E-001;-3.867383813485503E-003;4.717595875263214E-003;
2.426166666666667E+009;1.693309992551804E-001;-1.024161875247955E-001;-3.735003992915154E-003;4.830532241612673E-003;
2.426333333333334E+009;1.696842461824417E-001;-1.029763370752335E-001;-3.565680235624313E-003;4.889640025794506E-003;
2.426500000000000E+009;1.704003065824509E-001;-1.034878417849541E-001;-3.402617061510682E-003;5.088226404041052E-003;
2.426666666666667E+009;1.708352714776993E-001;-1.037800014019013E-001;-3.193664364516735E-003;5.228376947343350E-003;
2.426833333333334E+009;1.715082079172134E-001;-1.041372865438461E-001;-3.012215951457620E-003;5.393537692725658E-003;
2.427000000000000E+009;1.716191172599793E-001;-1.042952910065651E-001;-2.802475122734904E-003;5.433166865259409E-003;
2.427166666666667E+009;1.720071882009506E-001;-1.043307408690453E-001;-2.475948305800557E-003;5.486213602125645E-003;
2.427333333333334E+009;1.720288842916489E-001;-1.045173630118370E-001;-2.427514642477036E-003;5.482599139213562E-003;
2.427500000000000E+009;1.720849275588989E-001;-1.046292856335640E-001;-2.179328585043550E-003;5.579590797424316E-003;
2.427666666666667E+009;1.719244122505188E-001;-1.045644357800484E-001;-1.964974217116833E-003;5.686034448444843E-003;
