# Version 1.00
#
freq[Hz];re:Trc1_S11;im:Trc1_S11;re:Trc2_S21;im:Trc2_S21;
2.400000000000000E+009;1.506604701280594E-001;1.157004088163376E-001;1.276341790799052E-004;1.181038678623736E-003;
2.400166666666667E+009;1.503387838602066E-001;1.134370565414429E-001;8.078740938799456E-005;9.064887999556959E-004;
2.400333333333334E+009;1.504430919885635E-001;1.113695725798607E-001;1.890597758347212E-007;5.420541274361312E-004;
2.400500000000000E+009;1.499614119529724E-001;1.088525205850601E-001;-2.154297835659236E-004;2.969040360767394E-004;
2.400666666666667E+009;1.501581668853760E-001;1.063675880432129E-001;-2.409224398434162E-004;2.306806854903698E-004;
2.400833333333334E+009;1.499294340610504E-001;1.034794598817825E-001;-5.291149136610329E-004;1.598534981894773E-005;
2.401000000000000E+009;1.501130014657974E-001;1.007775515317917E-001;-8.859733352437615E-004;-1.307589845964685E-004;
2.401166666666667E+009;1.500563770532608E-001;9.802335500717163E-002;-1.233104383572936E-003;-1.769226364558563E-004;
2.401333333333334E+009;1.505851149559021E-001;9.525846689939499E-002;-1.509385067038238E-003;-1.420925109414384E-004;
2.401500000000000E+009;1.507124155759811E-001;9.246785938739777E-002;-1.847737352363765E-003;5.327186954673380E-005;
2.401666666666667E+009;1.512818634510040E-001;8.951835334300995E-002;-2.045757137238979E-003;3.377210814505816E-004;
2.401833333333334E+009;1.516054719686508E-001;8.681466430425644E-002;-2.413803013041616E-003;4.443685756996274E-004;
2.402000000000000E+009;1.524330526590347E-001;8.401124179363251E-002;-2.390619367361069E-003;6.612398428842425E-004;
2.402166666666667E+009;1.533008664846420E-001;8.135389536619186E-002;-2.438381081447005E-003;1.041646464727819E-003;
2.402333333333334E+009;1.543429940938950E-001;7.873436808586121E-002;-2.727198414504528E-003;1.533622737042606E-003;
2.402500000000000E+009;1.556027084589005E-001;7.604364305734634E-002;-2.592171076685190E-003;1.687400159426034E-003;
2.402666666666667E+009;1.568527221679688E-001;7.375051081180573E-002;-2.423529513180256E-003;2.042116597294807E-003;
2.402833333333334E+009;1.585022807121277E-001;7.097995281219482E-002;-2.371438546106219E-003;2.410293789580464E-003;
2.403000000000000E+009;1.600415855646133E-001;6.863468140363693E-002;-2.220339840278029E-003;2.570336917415261E-003;
2.403166666666667E+009;1.619217693805695E-001;6.620054692029953E-002;-2.065192209556699E-003;2.957696327939630E-003;
2.403333333333334E+009;1.637845039367676E-001;6.369356811046600E-002;-1.849781488999724E-003;3.057619091123343E-003;
2.403500000000000E+009;1.656089425086975E-001;6.164673343300819E-002;-1.550504588522017E-003;3.185024950653315E-003;
2.403666666666667E+009;1.677245348691940E-001;5.942959338426590E-002;-1.387999509461224E-003;3.296389011666179E-003;
2.403833333333334E+009;1.695127040147781E-001;5.735192447900772E-002;-9.946175850927830E-004;3.337760921567679E-003;
2.404000000000000E+009;1.713252365589142E-001;5.526295676827431E-002;-9.608070831745863E-004;3.324317047372460E-003;
2.404166666666667E+009;1.733436882495880E-001;5.347238853573799E-002;-7.493561715818942E-004;3.306506900116801E-003;
2.404333333333334E+009;1.753751039505005E-001;5.173403769731522E-002;-4.747764614876360E-004;3.314016386866570E-003;
2.404500000000000E+009;1.771500557661057E-001;5.023514106869698E-002;-3.191881114616990E-004;3.364435164257884E-003;
2.404666666666667E+009;1.790841072797775E-001;4.898865520954132E-002;-4.361841420177370E-004;3.332220949232578E-003;
2.404833333333334E+009;1.812068521976471E-001;4.762084409594536E-002;-1.899712515296415E-004;3.506192239001393E-003;
2.405000000000000E+009;1.828347593545914E-001;4.669738933444023E-002;-1.205181542900391E-004;3.315413370728493E-003;
2.405166666666667E+009;1.846783906221390E-001;4.587606340646744E-002;6.641038635279983E-005;3.566931933164597E-003;
2.405333333333334E+009;1.863026469945908E-001;4.529816657304764E-002;1.543759426567704E-004;3.500707447528839E-003;
2.405500000000000E+009;1.880546212196350E-001;4.470027983188629E-002;4.850951954722405E-004;3.545724786818028E-003;
2.405666666666667E+009;1.896826475858688E-001;4.425664991140366E-002;6.216591573320329E-004;3.684107679873705E-003;
2.405833333333334E+009;1.911713480949402E-001;4.377488046884537E-002;6.287299911491573E-004;3.676344174891710E-003;
2.406000000000000E+009;1.925172209739685E-001;4.368389770388603E-002;8.280558395199478E-004;3.623621771112084E-003;
2.406166666666667E+009;1.939039081335068E-001;4.322313889861107E-002;9.278065990656614E-004;3.650777973234654E-003;
2.406333333333334E+009;1.951093375682831E-001;4.341236501932144E-002;1.356574473902583E-003;3.723951289430261E-003;
2.406500000000000E+009;1.962163746356964E-001;4.326730594038963E-002;1.696942024864256E-003;3.484699642285705E-003;
2.406666666666667E+009;1.971099227666855E-001;4.338902235031128E-002;1.621708506718278E-003;3.505569649860263E-003;
2.406833333333334E+009;1.978898942470551E-001;4.325672239065170E-002;1.935593783855438E-003;3.543656785041094E-003;
2.407000000000000E+009;1.984745115041733E-001;4.354752600193024E-002;1.971784513443708E-003;3.335574874654412E-003;
2.407166666666667E+009;1.991305649280548E-001;4.335432499647141E-002;2.036525867879391E-003;3.243471961468458E-003;
2.407333333333334E+009;1.993105411529541E-001;4.358283430337906E-002;2.416730858385563E-003;2.971818437799811E-003;
2.407500000000000E+009;1.993673443794251E-001;4.354811087250710E-002;2.495796419680119E-003;2.921134699136019E-003;
2.407666666666667E+009;1.996823698282242E-001;4.349989444017410E-002;2.698772121220827E-003;2.811451675370336E-003;
2.407833333333334E+009;1.992411911487579E-001;4.346646368503571E-002;2.600432839244604E-003;2.567527582868934E-003;
2.408000000000000E+009;1.993712633848190E-001;4.350917413830757E-002;2.776374341920018E-003;2.530911006033421E-003;
2.408166666666667E+009;1.986757218837738E-001;4.313989356160164E-002;2.885775873437524E-003;2.400855999439955E-003;
2.408333333333334E+009;1.983716785907745E-001;4.269873723387718E-002;3.083826508373022E-003;2.108332002535462E-003;
2.408500000000000E+009;1.976570636034012E-001;4.253388196229935E-002;3.094190265983343E-003;2.071524737402797E-003;
2.408666666666667E+009;1.970954835414887E-001;4.200686141848564E-002;3.139762440696359E-003;1.828182023018599E-003;
2.408833333333334E+009;1.963390558958054E-001;4.146097972989082E-002;3.083557356148958E-003;1.771791838109493E-003;
2.409000000000000E+009;1.953378170728684E-001;4.074256494641304E-002;3.205120330676436E-003;1.686800736933947E-003;
2.409166666666667E+009;1.942138075828552E-001;3.978409990668297E-002;3.227539593353868E-003;1.608688151463866E-003;
2.409333333333334E+009;1.932355910539627E-001;3.890655562281609E-002;3.377132350578904E-003;1.280140480957925E-003;
2.409500000000000E+009;1.918967515230179E-001;3.779512271285057E-002;3.369664773344994E-003;1.312105916440487E-003;
2.409666666666667E+009;1.908696442842484E-001;3.642303869128227E-002;3.349556354805827E-003;1.232754439115524E-003;
2.409833333333334E+009;1.894917935132980E-001;3.514175489544869E-002;3.235089592635632E-003;1.022916752845049E-003;
2.410000000000000E+009;1.883391588926315E-001;3.370657935738564E-002;3.326808335259557E-003;1.029194681905210E-003;
2.410166666666667E+009;1.870220303535461E-001;3.195980563759804E-002;3.280097385868430E-003;6.897308048792183E-004;
2.410333333333334E+009;1.859846115112305E-001;3.036608546972275E-002;3.349258331581950E-003;7.455906015820801E-004;
2.410500000000000E+009;1.847632825374603E-001;2.854417264461517E-002;3.231315640732646E-003;6.773863569833338E-004;
2.410666666666667E+009;1.835813373327255E-001;2.633587829768658E-002;3.305428894236684E-003;4.503318923525512E-004;
2.410833333333334E+009;1.827584654092789E-001;2.415338717401028E-002;3.087707795202732E-003;4.815612337552011E-004;
2.411000000000000E+009;1.818615645170212E-001;2.208947390317917E-002;3.279765835031867E-003;3.436936531215906E-004;
2.411166666666667E+009;1.808524578809738E-001;1.983412727713585E-002;3.229964058846235E-003;3.974339342676103E-004;
2.411333333333334E+009;1.801862269639969E-001;1.733195036649704E-002;3.189570736140013E-003;1.760853338055313E-004;
2.411500000000000E+009;1.794729679822922E-001;1.497316453605890E-002;3.261535661295056E-003;1.173425989691168E-004;
2.411666666666667E+009;1.792254000902176E-001;1.262496039271355E-002;3.285472281277180E-003;-1.450901163480012E-005;
2.411833333333334E+009;1.786070913076401E-001;1.015128381550312E-002;3.251588437706232E-003;1.044610417011427E-005;
2.412000000000000E+009;1.784459501504898E-001;7.387710269540548E-003;3.257755655795336E-003;1.546735293231905E-004;
2.412166666666667E+009;1.784293800592423E-001;5.104034673422575E-003;3.346480894833803E-003;-6.981341721257195E-005;
2.412333333333334E+009;1.783667206764221E-001;2.390078501775861E-003;3.315275767818093E-003;-1.943345123436302E-004;
2.412500000000000E+009;1.787468791007996E-001;-3.592995926737785E-005;3.486883593723178E-003;-3.604555095080286E-004;
2.412666666666667E+009;1.790005117654800E-001;-2.809836296364665E-003;3.286320483312011E-003;-4.718903510365635E-004;
2.412833333333334E+009;1.796523779630661E-001;-5.211930721998215E-003;3.542606951668859E-003;-6.447904161177576E-004;
2.413000000000000E+009;1.802043169736862E-001;-7.625994738191366E-003;3.552533453330398E-003;-7.095041219145060E-004;
2.413166666666667E+009;1.808944046497345E-001;-1.009462401270866E-002;3.546284278854728E-003;-9.080304880626500E-004;
2.413333333333334E+009;1.817268282175064E-001;-1.250508241355419E-002;3.690036246553063E-003;-1.061216695234180E-003;
2.413500000000000E+009;1.827166229486466E-001;-1.505572907626629E-002;3.592601045966148E-003;-1.126747811213136E-003;
2.413666666666667E+009;1.837482601404190E-001;-1.749861054122448E-002;3.682509064674377E-003;-1.411723205819726E-003;
2.413833333333334E+009;1.848421543836594E-001;-1.957100071012974E-002;3.624886507168412E-003;-1.603618613444269E-003;
2.414000000000000E+009;1.859385371208191E-001;-2.173516899347305E-002;3.492455696687102E-003;-1.822188263759017E-003;
2.414166666666667E+009;1.872819960117340E-001;-2.362075820565224E-002;3.522522514685988E-003;-2.049877308309078E-003;
2.414333333333334E+009;1.883319616317749E-001;-2.578874118626118E-002;3.478829748928547E-003;-2.287773415446281E-003;
2.414500000000000E+009;1.897416561841965E-001;-2.753513120114803E-002;3.259473945945501E-003;-2.548702759668231E-003;
2.414666666666667E+009;1.907456666231155E-001;-2.905106358230114E-002;3.105480456724763E-003;-2.815598621964455E-003;
2.414833333333334E+009;1.921806931495667E-001;-3.061836026608944E-002;2.964824903756380E-003;-2.895349403843284E-003;
2.415000000000000E+009;1.933304667472839E-001;-3.208599984645844E-002;2.821092959493399E-003;-3.169202711433172E-003;
2.415166666666667E+009;1.947251707315445E-001;-3.338861837983131E-002;2.612405456602573E-003;-3.200310049578548E-003;
2.415333333333334E+009;1.959644854068756E-001;-3.431493416428566E-002;2.274977508932352E-003;-3.313796361908317E-003;
2.415500000000000E+009;1.971415132284164E-001;-3.514994680881500E-002;2.175323432311416E-003;-3.477406688034535E-003;
2.415666666666667E+009;1.983380466699600E-001;-3.619382157921791E-002;1.971209188923240E-003;-3.527967724949122E-003;
2.415833333333334E+009;1.993468552827835E-001;-3.676194697618485E-002;1.673499820753932E-003;-3.592801047489047E-003;
2.416000000000000E+009;2.002260833978653E-001;-3.737357258796692E-002;1.503335312008858E-003;-3.513773670420051E-003;
2.416166666666667E+009;2.011911273002625E-001;-3.801768273115158E-002;1.496263779699802E-003;-3.446358954533935E-003;
2.416333333333334E+009;2.019326686859131E-001;-3.824413195252419E-002;1.217005192302167E-003;-3.621936542913318E-003;
2.416500000000000E+009;2.025109082460403E-001;-3.840034082531929E-002;1.049255719408393E-003;-3.565242281183600E-003;
2.416666666666667E+009;2.029917240142822E-001;-3.878853097558022E-002;8.539752452634275E-004;-3.503977553918958E-003;
2.416833333333334E+009;2.033027112483978E-001;-3.877029567956924E-002;7.996626663953066E-004;-3.438888816162944E-003;
2.417000000000000E+009;2.037618160247803E-001;-3.879928961396217E-002;7.001507328823209E-004;-3.464438719674945E-003;
2.417166666666667E+009;2.036206722259522E-001;-3.848012536764145E-002;5.711669800803065E-004;-3.586347913369536E-003;
2.417333333333334E+009;2.036279439926148E-001;-3.826570510864258E-002;3.226301341783255E-004;-3.466679016128182E-003;
2.417500000000000E+009;2.036357372999191E-001;-3.816152736544609E-002;3.632637672126293E-004;-3.594666952267289E-003;
2.417666666666667E+009;2.032060027122498E-001;-3.772768378257752E-002;4.158141964580864E-004;-3.618485527113080E-003;
2.417833333333334E+009;2.028984725475311E-001;-3.734513372182846E-002;-2.381910235271789E-005;-3.672332968562841E-003;
2.418000000000000E+009;2.025063484907150E-001;-3.694384917616844E-002;-8.238409645855427E-005;-3.636082168668509E-003;
2.418166666666667E+009;2.018832713365555E-001;-3.667952120304108E-002;-3.298826923128218E-004;-3.665584838017821E-003;
2.418333333333334E+009;2.011619061231613E-001;-3.640328720211983E-002;-5.273440037854016E-004;-3.706961637362838E-003;
2.418500000000000E+009;2.003586590290070E-001;-3.614027425646782E-002;-8.576530381105840E-004;-3.575727809220552E-003;
2.418666666666667E+009;1.996805816888809E-001;-3.586744517087936E-002;-1.088387332856655E-003;-3.580966265872121E-003;
2.418833333333334E+009;1.985725760459900E-001;-3.586008772253990E-002;-1.198094454593957E-003;-3.366103162989020E-003;
2.419000000000000E+009;1.974774301052094E-001;-3.587590157985687E-002;-1.404715818352997E-003;-3.242565784603357E-003;
2.419166666666667E+009;1.962505280971527E-001;-3.593641147017479E-002;-1.656623673625290E-003;-2.951082075014710E-003;
2.419333333333334E+009;1.949745267629623E-001;-3.630889579653740E-002;-1.786603010259569E-003;-2.662386512383819E-003;
2.419500000000000E+009;1.935821324586868E-001;-3.654694929718971E-002;-1.891416497528553E-003;-2.377561060711741E-003;
2.419666666666667E+009;1.920603960752487E-001;-3.712389245629311E-002;-1.953566912561655E-003;-2.230791142210364E-003;
2.419833333333334E+009;1.904294192790985E-001;-3.766300529241562E-002;-1.890356419607997E-003;-1.891320920549333E-003;
2.420000000000000E+009;1.889124363660812E-001;-3.851985931396484E-002;-1.888559316284955E-003;-1.673401566222310E-003;
2.420166666666667E+009;1.872156411409378E-001;-3.933576866984367E-002;-1.775724464096129E-003;-1.604672987014055E-003;
2.420333333333334E+009;1.856814920902252E-001;-4.033712670207024E-002;-1.619169022887945E-003;-1.262062694877386E-003;
2.420500000000000E+009;1.838967800140381E-001;-4.154778271913528E-002;-1.307635568082333E-003;-1.236489159055054E-003;
2.420666666666667E+009;1.821913868188858E-001;-4.247079789638519E-002;-1.274077570997179E-003;-1.041223062202334E-003;
2.420833333333334E+009;1.802859902381897E-001;-4.409112036228180E-002;-1.102879177778959E-003;-1.049365382641554E-003;
2.421000000000000E+009;1.788438409566879E-001;-4.544751718640328E-002;-8.288412354886532E-004;-1.036341418512166E-003;
2.421166666666667E+009;1.772711873054504E-001;-4.707517474889755E-002;-5.539170815609396E-004;-1.203431282192469E-003;
2.421333333333334E+009;1.753770709037781E-001;-4.854901507496834E-002;-5.456767394207418E-004;-1.305403537116945E-003;
2.421500000000000E+009;1.740225404500961E-001;-5.034524574875832E-002;-4.794276901520789E-004;-1.272476860322058E-003;
2.421666666666667E+009;1.727681756019592E-001;-5.223966389894486E-002;-3.608635452110320E-004;-1.731584081426263E-003;
2.421833333333334E+009;1.713146418333054E-001;-5.411734059453011E-002;-3.241141093894839E-004;-1.654224703088403E-003;
2.422000000000000E+009;1.700851768255234E-001;-5.604233592748642E-002;-3.715649654623121E-004;-1.832308480516076E-003;
2.422166666666667E+009;1.691011041402817E-001;-5.814638733863831E-002;-4.821317270398140E-004;-1.957502216100693E-003;
2.422333333333334E+009;1.680843383073807E-001;-6.018384918570519E-002;-4.732899251393974E-004;-2.141090808436275E-003;
2.422500000000000E+009;1.671603918075562E-001;-6.214177235960960E-002;-7.241932325996459E-004;-2.177903195843101E-003;
2.422666666666667E+009;1.663229316473007E-001;-6.412293761968613E-002;-9.234326425939798E-004;-2.347316127270460E-003;
2.422833333333334E+009;1.658400595188141E-001;-6.623727083206177E-002;-1.063051982782781E-003;-2.403633203357458E-003;
2.423000000000000E+009;1.651919186115265E-001;-6.854004412889481E-002;-1.118129352107644E-003;-2.553982660174370E-003;
2.423166666666667E+009;1.649468243122101E-001;-7.043401896953583E-002;-1.277574570849538E-003;-2.404052531346679E-003;
2.423333333333334E+009;1.646653115749359E-001;-7.269026339054108E-002;-1.556985313072801E-003;-2.382506616413593E-003;
2.423500000000000E+009;1.646245718002319E-001;-7.446926832199097E-002;-1.681455178186297E-003;-2.381975762546063E-003;
2.423666666666667E+009;1.646070480346680E-001;-7.668878138065338E-002;-1.727957511320710E-003;-2.350974362343550E-003;
2.423833333333334E+009;1.644598692655563E-001;-7.861807197332382E-002;-2.188575919717550E-003;-2.116001909598708E-003;
2.424000000000000E+009;1.648211330175400E-001;-8.046682178974152E-002;-2.197096357122064E-003;-2.212468069046736E-003;
2.424166666666667E+009;1.647285521030426E-001;-8.214294165372849E-002;-2.342576393857598E-003;-1.900539733469486E-003;
2.424333333333334E+009;1.652129441499710E-001;-8.399953693151474E-002;-2.519555622711778E-003;-2.050510840490460E-003;
2.424500000000000E+009;1.655263900756836E-001;-8.592787384986877E-002;-2.670366317033768E-003;-1.911686267703772E-003;
2.424666666666667E+009;1.659113466739655E-001;-8.741197735071182E-002;-2.666630316525698E-003;-1.663187053054571E-003;
2.424833333333334E+009;1.664719879627228E-001;-8.892967551946640E-002;-2.719291718676686E-003;-1.720258034765720E-003;
2.425000000000000E+009;1.669542491436005E-001;-9.035185724496841E-002;-2.716931048780680E-003;-1.496931537985802E-003;
2.425166666666667E+009;1.674339473247528E-001;-9.154862910509110E-002;-2.801317023113370E-003;-1.477206009440124E-003;
2.425333333333334E+009;1.680292189121246E-001;-9.259367734193802E-002;-2.927792258560658E-003;-1.328745507635176E-003;
2.425500000000000E+009;1.687026768922806E-001;-9.375540912151337E-002;-2.889927243813872E-003;-1.120024942792952E-003;
2.425666666666667E+009;1.692475825548172E-001;-9.461211413145065E-002;-2.967301756143570E-003;-1.043404103256762E-003;
2.425833333333334E+009;1.697617173194885E-001;-9.556931257247925E-002;-3.114665392786264E-003;-8.502798154950142E-004;
2.426000000000000E+009;1.703388243913651E-001;-9.617831557989121E-002;-3.111021593213081E-003;-7.977634086273611E-004;
2.426166666666667E+009;1.709808707237244E-001;-9.670933336019516E-002;-3.081873292103410E-003;-7.537989295087755E-004;
2.426333333333334E+009;1.713959425687790E-001;-9.746797382831574E-002;-3.101777518168092E-003;-6.950187962502241E-004;
2.426500000000000E+009;1.720102429389954E-001;-9.786757081747055E-002;-3.217743011191487E-003;-5.795843899250031E-004;
2.426666666666667E+009;1.724672019481659E-001;-9.821397066116333E-002;-3.201807150617242E-003;-3.322052652947605E-004;
2.426833333333334E+009;1.730891317129135E-001;-9.860973060131073E-002;-3.255971008911729E-003;-2.771904983092099E-004;
2.427000000000000E+009;1.731894612312317E-001;-9.901440143585205E-002;-3.297937568277121E-003;-1.812830014387146E-004;
2.427166666666667E+009;1.735849827528000E-001;-9.919751435518265E-002;-3.257627366110683E-003;6.874605605844408E-005;
2.427333333333334E+009;1.735980510711670E-001;-9.949813038110733E-002;-3.426951356232166E-003;1.351341925328597E-004;
2.427500000000000E+009;1.735910922288895E-001;-9.968899190425873E-002;-3.320073243230581E-003;2.296504826517776E-004;
2.427666666666667E+009;1.735204011201859E-001;-9.989104419946671E-002;-3.365912474691868E-003;3.986677329521626E-004;
