# Version 1.00
#
freq[Hz];re:Trc1_S11;im:Trc1_S11;re:Trc2_S21;im:Trc2_S21;
2.400000000000000E+009;1.509796082973480E-001;1.155926957726479E-001;1.315783010795713E-004;1.255866140127182E-003;
2.400166666666667E+009;1.504804939031601E-001;1.131964400410652E-001;1.466673566028476E-004;1.143575529567897E-003;
2.400333333333334E+009;1.504850834608078E-001;1.112181395292282E-001;-1.495535161666339E-005;8.293463033623993E-004;
2.400500000000000E+009;1.501146852970123E-001;1.083954349160194E-001;-1.952779130078852E-004;6.963193882256746E-004;
2.400666666666667E+009;1.504630744457245E-001;1.061993241310120E-001;-3.098084998782724E-004;3.686142445076257E-004;
2.400833333333334E+009;1.500609964132309E-001;1.032501533627510E-001;-4.560956440400332E-004;2.870485477615148E-004;
2.401000000000000E+009;1.502608060836792E-001;1.003291532397270E-001;-8.890019962564111E-004;9.284602856496349E-005;
2.401166666666667E+009;1.502688974142075E-001;9.782049059867859E-002;-1.187634654343128E-003;1.042310250340961E-004;
2.401333333333334E+009;1.506568044424057E-001;9.505429118871689E-002;-1.362308743409813E-003;1.363959891023114E-004;
2.401500000000000E+009;1.509608328342438E-001;9.213735163211823E-002;-1.629463164135814E-003;3.044778713956475E-004;
2.401666666666667E+009;1.511948257684708E-001;8.933934569358826E-002;-1.926665427163243E-003;5.385849508456886E-004;
2.401833333333334E+009;1.518431305885315E-001;8.654157817363739E-002;-2.221067901700735E-003;7.740891887806356E-004;
2.402000000000000E+009;1.526985466480255E-001;8.369988948106766E-002;-2.317634643986821E-003;1.072762534022331E-003;
2.402166666666667E+009;1.533993929624558E-001;8.104005455970764E-002;-2.389180939644575E-003;1.307639060541987E-003;
2.402333333333334E+009;1.545531153678894E-001;7.831393927335739E-002;-2.433077897876501E-003;1.536185620352626E-003;
2.402500000000000E+009;1.557258814573288E-001;7.572235912084580E-002;-2.441766206175089E-003;1.978027401492000E-003;
2.402666666666667E+009;1.571567058563232E-001;7.326296716928482E-002;-2.224451396614313E-003;2.215711865574122E-003;
2.402833333333334E+009;1.583365201950073E-001;7.055307924747467E-002;-2.241682494059205E-003;2.780070062726736E-003;
2.403000000000000E+009;1.602118164300919E-001;6.823546439409256E-002;-1.936807064339519E-003;2.701758174225688E-003;
2.403166666666667E+009;1.620188653469086E-001;6.572476774454117E-002;-1.804269035346806E-003;2.976579358801246E-003;
2.403333333333334E+009;1.634100079536438E-001;6.352181732654572E-002;-1.664085313677788E-003;3.259019227698445E-003;
2.403500000000000E+009;1.655884385108948E-001;6.136699393391609E-002;-1.376792206428945E-003;3.286406630650163E-003;
2.403666666666667E+009;1.672917753458023E-001;5.917070060968399E-002;-1.000318326987326E-003;3.358835820108652E-003;
2.403833333333334E+009;1.694695651531220E-001;5.697745829820633E-002;-8.423945982940495E-004;3.548390464857221E-003;
2.404000000000000E+009;1.711116433143616E-001;5.521193519234657E-002;-6.395651726052165E-004;3.464236622676253E-003;
2.404166666666667E+009;1.734771132469177E-001;5.337195843458176E-002;-3.987535601481795E-004;3.402060130611062E-003;
2.404333333333334E+009;1.750332862138748E-001;5.152225494384766E-002;-2.242811024188995E-004;3.339392598718405E-003;
2.404500000000000E+009;1.768721193075180E-001;4.972304776310921E-002;-1.477642799727619E-004;3.409181255847216E-003;
2.404666666666667E+009;1.790847182273865E-001;4.845853894948959E-002;5.324335870682262E-005;3.328594611957669E-003;
2.404833333333334E+009;1.810882538557053E-001;4.753315448760986E-002;1.250565546797589E-004;3.303126199170947E-003;
2.405000000000000E+009;1.826117187738419E-001;4.663119465112686E-002;1.719633728498593E-004;3.331867512315512E-003;
2.405166666666667E+009;1.843533813953400E-001;4.572214558720589E-002;3.200614883098751E-004;3.366093849763274E-003;
2.405333333333334E+009;1.861563473939896E-001;4.507506638765335E-002;5.188124487176538E-004;3.157993778586388E-003;
2.405500000000000E+009;1.878372728824616E-001;4.456174001097679E-002;6.140036857686937E-004;3.349471371620894E-003;
2.405666666666667E+009;1.894322484731674E-001;4.404884204268456E-002;7.857304881326854E-004;3.427763469517231E-003;
2.405833333333334E+009;1.909745037555695E-001;4.374304413795471E-002;8.953100768849254E-004;3.505832515656948E-003;
2.406000000000000E+009;1.923225373029709E-001;4.334043711423874E-002;1.111016143113375E-003;3.442778950557113E-003;
2.406166666666667E+009;1.935818344354630E-001;4.314266145229340E-002;1.045978628098965E-003;3.551303409039974E-003;
2.406333333333334E+009;1.949520856142044E-001;4.317728057503700E-002;1.612179563380778E-003;3.362288465723395E-003;
2.406500000000000E+009;1.959544718265533E-001;4.312411695718765E-002;1.707689953036606E-003;3.290873719379306E-003;
2.406666666666667E+009;1.968585699796677E-001;4.318263754248619E-002;1.914767432026565E-003;3.307985374704003E-003;
2.406833333333334E+009;1.976527869701386E-001;4.318597540259361E-002;2.109802095219493E-003;3.083367832005024E-003;
2.407000000000000E+009;1.983314156532288E-001;4.324249550700188E-002;2.245155861601234E-003;2.908905502408743E-003;
2.407166666666667E+009;1.989762634038925E-001;4.321391135454178E-002;2.333401702344418E-003;3.090982325375080E-003;
2.407333333333334E+009;1.991159021854401E-001;4.332386329770088E-002;2.491373103111982E-003;2.773653250187635E-003;
2.407500000000000E+009;1.992807090282440E-001;4.345348477363586E-002;2.541740424931049E-003;2.661413978785276E-003;
2.407666666666667E+009;1.993782073259354E-001;4.353439062833786E-002;2.728895517066121E-003;2.394281094893813E-003;
2.407833333333334E+009;1.990110129117966E-001;4.335251078009605E-002;2.830914454534650E-003;2.359545789659023E-003;
2.408000000000000E+009;1.989886015653610E-001;4.338108748197556E-002;2.958188299089670E-003;2.306218724697828E-003;
2.408166666666667E+009;1.986241340637207E-001;4.322927072644234E-002;3.080308903008699E-003;2.026845468208194E-003;
2.408333333333334E+009;1.981824487447739E-001;4.284175112843514E-002;3.023321973159909E-003;1.736029633320868E-003;
2.408500000000000E+009;1.974478363990784E-001;4.260148853063583E-002;3.157966537401080E-003;1.742546912282705E-003;
2.408666666666667E+009;1.968952268362045E-001;4.212239012122154E-002;3.147169249132276E-003;1.602591248229146E-003;
2.408833333333334E+009;1.960202753543854E-001;4.156915843486786E-002;3.069088561460376E-003;1.534964074380696E-003;
2.409000000000000E+009;1.950684934854507E-001;4.076554626226425E-002;3.280347213149071E-003;1.304204226471484E-003;
2.409166666666667E+009;1.939153224229813E-001;3.977718204259872E-002;3.101442474871874E-003;1.215789350681007E-003;
2.409333333333334E+009;1.930669397115707E-001;3.908429294824600E-002;3.184994682669640E-003;1.116224797442555E-003;
2.409500000000000E+009;1.916333138942719E-001;3.784926235675812E-002;3.070549340918660E-003;1.059710863046348E-003;
2.409666666666667E+009;1.905892342329025E-001;3.656844794750214E-002;3.243617014959455E-003;9.246513945981860E-004;
2.409833333333334E+009;1.893952190876007E-001;3.519526496529579E-002;3.118301043286920E-003;7.745459442958236E-004;
2.410000000000000E+009;1.881014108657837E-001;3.367265313863754E-002;3.219637088477612E-003;6.954504642635584E-004;
2.410166666666667E+009;1.868681609630585E-001;3.200414404273033E-002;3.273337846621871E-003;6.040832959115505E-004;
2.410333333333334E+009;1.857362538576126E-001;3.040643781423569E-002;3.078058129176498E-003;3.298441006336361E-004;
2.410500000000000E+009;1.845292598009110E-001;2.852286957204342E-002;3.078302135691047E-003;3.477774735074490E-004;
2.410666666666667E+009;1.834370493888855E-001;2.623629011213779E-002;3.256348893046379E-003;1.812796544982120E-004;
2.410833333333334E+009;1.825139373540878E-001;2.420981228351593E-002;3.139607375487685E-003;9.185278759105131E-005;
2.411000000000000E+009;1.815645247697830E-001;2.211198583245277E-002;3.157209837809205E-003;2.161031734431163E-004;
2.411166666666667E+009;1.807131022214890E-001;1.993125304579735E-002;3.246610751375556E-003;1.092707461793907E-004;
2.411333333333334E+009;1.801461428403854E-001;1.744847185909748E-002;3.124123672023416E-003;-6.143568316474557E-005;
2.411500000000000E+009;1.793935000896454E-001;1.505660917609930E-002;3.041558200493455E-003;-4.578523657983169E-005;
2.411666666666667E+009;1.789940893650055E-001;1.276027224957943E-002;3.070528851822019E-003;-8.156148396665230E-005;
2.411833333333334E+009;1.786242276430130E-001;1.017605792731047E-002;3.072462044656277E-003;-2.590448129922152E-004;
2.412000000000000E+009;1.783276051282883E-001;7.523410953581333E-003;2.961824648082256E-003;-2.802186645567417E-004;
2.412166666666667E+009;1.783679872751236E-001;5.126940086483955E-003;3.187584457919002E-003;-2.508336037863046E-004;
2.412333333333334E+009;1.782991439104080E-001;2.570484764873982E-003;3.122782334685326E-003;-2.990156353916973E-004;
2.412500000000000E+009;1.786789894104004E-001;-3.213306627003476E-005;3.156917635351419E-003;-4.674190713558346E-004;
2.412666666666667E+009;1.788878887891769E-001;-2.626978559419513E-003;3.157218452543020E-003;-6.664110114797950E-004;
2.412833333333334E+009;1.795620173215866E-001;-5.134783685207367E-003;3.201910993084312E-003;-7.107564597390592E-004;
2.413000000000000E+009;1.799936145544052E-001;-7.801161147654057E-003;3.188162576407194E-003;-8.987532346509397E-004;
2.413166666666667E+009;1.807174384593964E-001;-1.003345195204020E-002;3.246700624004006E-003;-9.111505351029337E-004;
2.413333333333334E+009;1.817655563354492E-001;-1.262329611927271E-002;3.405130235478282E-003;-9.818399557843804E-004;
2.413500000000000E+009;1.824895888566971E-001;-1.524955127388239E-002;3.209575079381466E-003;-1.204198342747986E-003;
2.413666666666667E+009;1.837128251791000E-001;-1.742438413202763E-002;3.308362560346723E-003;-1.496209762990475E-003;
2.413833333333334E+009;1.847015172243118E-001;-1.960614509880543E-002;3.209137590602040E-003;-1.706603681668639E-003;
2.414000000000000E+009;1.857781112194061E-001;-2.168378978967667E-002;3.296610433608294E-003;-1.812781207263470E-003;
2.414166666666667E+009;1.870599538087845E-001;-2.369154617190361E-002;3.242309903725982E-003;-1.972119323909283E-003;
2.414333333333334E+009;1.882097721099854E-001;-2.581495046615601E-002;3.087636781856418E-003;-2.180807525292039E-003;
2.414500000000000E+009;1.897380203008652E-001;-2.738142199814320E-002;2.976387739181519E-003;-2.322651911526918E-003;
2.414666666666667E+009;1.908213347196579E-001;-2.903708256781101E-002;2.962604863569140E-003;-2.761886687949300E-003;
2.414833333333334E+009;1.920131593942642E-001;-3.068321570754051E-002;2.497414592653513E-003;-2.759645460173488E-003;
2.415000000000000E+009;1.930582523345947E-001;-3.215343505144119E-002;2.448403509333730E-003;-2.942133927717805E-003;
2.415166666666667E+009;1.945954114198685E-001;-3.335800394415855E-002;2.351816743612289E-003;-2.964118961244822E-003;
2.415333333333334E+009;1.958606094121933E-001;-3.431828692555428E-002;2.047910122200847E-003;-3.159762592986226E-003;
2.415500000000000E+009;1.971012502908707E-001;-3.523942083120346E-002;1.794176874682307E-003;-3.202406689524651E-003;
2.415666666666667E+009;1.983494907617569E-001;-3.624514117836952E-002;1.549171749502420E-003;-3.340948373079300E-003;
2.415833333333334E+009;1.992458701133728E-001;-3.668871894478798E-002;1.413463614881039E-003;-3.290349850431085E-003;
2.416000000000000E+009;2.002003937959671E-001;-3.732467442750931E-002;1.299658440984786E-003;-3.309662919491530E-003;
2.416166666666667E+009;2.011425495147705E-001;-3.805004432797432E-002;1.123473979532719E-003;-3.266301704570651E-003;
2.416333333333334E+009;2.018778771162033E-001;-3.830708563327789E-002;9.335343493148685E-004;-3.281696466729045E-003;
2.416500000000000E+009;2.025907337665558E-001;-3.847010061144829E-002;7.915698806755245E-004;-3.366525284945965E-003;
2.416666666666667E+009;2.029797583818436E-001;-3.884888812899590E-002;5.160038708709180E-004;-3.324819728732109E-003;
2.416833333333334E+009;2.033180445432663E-001;-3.872314840555191E-002;4.970822483301163E-004;-3.291911445558071E-003;
2.417000000000000E+009;2.036588788032532E-001;-3.870536386966705E-002;4.927885602228344E-004;-3.075191518291831E-003;
2.417166666666667E+009;2.036127746105194E-001;-3.855863958597183E-002;4.380237369332463E-004;-3.196233417838812E-003;
2.417333333333334E+009;2.034420371055603E-001;-3.832384198904038E-002;3.428283962421119E-004;-3.209558781236410E-003;
2.417500000000000E+009;2.035238444805145E-001;-3.815570473670960E-002;3.459605504758656E-004;-3.254246432334185E-003;
2.417666666666667E+009;2.031174749135971E-001;-3.770819678902626E-002;3.792510688072071E-005;-3.203391563147306E-003;
2.417833333333334E+009;2.030012756586075E-001;-3.741525486111641E-002;-8.911497570807114E-005;-3.369764424860477E-003;
2.418000000000000E+009;2.024827450513840E-001;-3.693882003426552E-002;-2.223531773779541E-004;-3.315010340884328E-003;
2.418166666666667E+009;2.019223421812058E-001;-3.656550496816635E-002;-3.380381094757468E-004;-3.406608477234840E-003;
2.418333333333334E+009;2.010689973831177E-001;-3.622051328420639E-002;-5.780321662314236E-004;-3.418573644012213E-003;
2.418500000000000E+009;2.002605348825455E-001;-3.609118610620499E-002;-7.938469061627984E-004;-3.196269040927291E-003;
2.418666666666667E+009;1.996272057294846E-001;-3.582850843667984E-002;-1.098776701837778E-003;-3.253644099459052E-003;
2.418833333333334E+009;1.984051167964935E-001;-3.592372685670853E-002;-1.167806913144887E-003;-3.190183546394110E-003;
2.419000000000000E+009;1.972243040800095E-001;-3.588265553116798E-002;-1.415630104020238E-003;-2.903834450989962E-003;
2.419166666666667E+009;1.960400789976120E-001;-3.585361316800118E-002;-1.663154456764460E-003;-2.724164631217718E-003;
2.419333333333334E+009;1.947514712810516E-001;-3.618878498673439E-002;-1.796567928977311E-003;-2.326497575268149E-003;
2.419500000000000E+009;1.933440566062927E-001;-3.650360181927681E-002;-1.891818363219500E-003;-2.235135762020946E-003;
2.419666666666667E+009;1.918040663003922E-001;-3.712338581681252E-002;-1.829152228310704E-003;-1.950006699189544E-003;
2.419833333333334E+009;1.902550607919693E-001;-3.776271641254425E-002;-1.812059083022177E-003;-1.629943028092384E-003;
2.420000000000000E+009;1.887107938528061E-001;-3.842206299304962E-002;-1.681788708083332E-003;-1.454647746868432E-003;
2.420166666666667E+009;1.870709210634232E-001;-3.921309113502502E-002;-1.739389845170081E-003;-1.177639933302999E-003;
2.420333333333334E+009;1.853945553302765E-001;-4.025633260607719E-002;-1.376453554257751E-003;-9.818624239414930E-004;
2.420500000000000E+009;1.836097091436386E-001;-4.144162312150002E-002;-1.219219062477350E-003;-9.201514767482877E-004;
2.420666666666667E+009;1.816956400871277E-001;-4.240246489644051E-002;-9.341585100628436E-004;-8.364978712052107E-004;
2.420833333333334E+009;1.801021993160248E-001;-4.376928880810738E-002;-9.862408041954041E-004;-8.331974968314171E-004;
2.421000000000000E+009;1.785171329975128E-001;-4.538486525416374E-002;-5.367133417166770E-004;-8.920539985410869E-004;
2.421166666666667E+009;1.770341396331787E-001;-4.697331413626671E-002;-3.827134496532381E-004;-9.294956689700484E-004;
2.421333333333334E+009;1.752114892005920E-001;-4.830882325768471E-002;-3.508340450935066E-004;-9.946095524355769E-004;
2.421500000000000E+009;1.738764643669128E-001;-5.018614232540131E-002;-1.468588743591681E-004;-1.202814863063395E-003;
2.421666666666667E+009;1.724446415901184E-001;-5.200394988059998E-002;-2.776451001409441E-004;-1.404551905579865E-003;
2.421833333333334E+009;1.710928678512573E-001;-5.387965589761734E-002;-1.591294276295230E-004;-1.548642758280039E-003;
2.422000000000000E+009;1.700115650892258E-001;-5.557679384946823E-002;-2.694941940717399E-004;-1.667975215241313E-003;
2.422166666666667E+009;1.689315885305405E-001;-5.782789364457130E-002;-2.402857353445143E-004;-1.764259766787291E-003;
2.422333333333334E+009;1.678983569145203E-001;-5.974522978067398E-002;-2.431211178191006E-004;-1.977883744984865E-003;
2.422500000000000E+009;1.671511977910996E-001;-6.176623702049255E-002;-4.514511383604258E-004;-2.156824804842472E-003;
2.422666666666667E+009;1.662455946207047E-001;-6.376498937606812E-002;-6.361221312545240E-004;-2.113659633323550E-003;
2.422833333333334E+009;1.657263189554215E-001;-6.591075658798218E-002;-7.743744063191116E-004;-2.246191957965493E-003;
2.423000000000000E+009;1.653554141521454E-001;-6.803814321756363E-002;-8.834549225866795E-004;-2.337311394512653E-003;
2.423166666666667E+009;1.648164689540863E-001;-7.022235542535782E-002;-1.082790782675147E-003;-2.313921693712473E-003;
2.423333333333334E+009;1.646939963102341E-001;-7.234901934862137E-002;-1.296687871217728E-003;-2.298462204635143E-003;
2.423500000000000E+009;1.645199656486511E-001;-7.429403811693192E-002;-1.364978263154626E-003;-2.321928273886442E-003;
2.423666666666667E+009;1.646053493022919E-001;-7.632956653833389E-002;-1.400657929480076E-003;-2.261142246425152E-003;
2.423833333333334E+009;1.645226180553436E-001;-7.815785706043243E-002;-1.753062009811401E-003;-2.321523847058415E-003;
2.424000000000000E+009;1.647976487874985E-001;-8.030580729246140E-002;-1.766645582392812E-003;-2.169798361137509E-003;
2.424166666666667E+009;1.648070067167282E-001;-8.203791081905365E-002;-1.866574981249869E-003;-2.065500942990184E-003;
2.424333333333334E+009;1.652208119630814E-001;-8.376955986022949E-002;-2.015321748331189E-003;-1.943645998835564E-003;
2.424500000000000E+009;1.657291650772095E-001;-8.568215370178223E-002;-2.226975979283452E-003;-1.951348618604243E-003;
2.424666666666667E+009;1.659206897020340E-001;-8.710542321205139E-002;-2.186012687161565E-003;-1.856055459938943E-003;
2.424833333333334E+009;1.667651683092117E-001;-8.871969580650330E-002;-2.358012599870563E-003;-1.677355030551553E-003;
2.425000000000000E+009;1.672105193138123E-001;-9.004028141498566E-002;-2.406488405540586E-003;-1.490888302214444E-003;
2.425166666666667E+009;1.676137000322342E-001;-9.130090475082398E-002;-2.537630731239915E-003;-1.444487948901951E-003;
2.425333333333334E+009;1.681794077157974E-001;-9.240010380744934E-002;-2.619647653773427E-003;-1.295638736337423E-003;
2.425500000000000E+009;1.688359528779984E-001;-9.362267702817917E-002;-2.591992961242795E-003;-1.291078049689531E-003;
2.425666666666667E+009;1.694318354129791E-001;-9.440169483423233E-002;-2.720612566918135E-003;-1.248568296432495E-003;
2.425833333333334E+009;1.699111163616180E-001;-9.538006037473679E-002;-2.740975236520171E-003;-1.035299035720527E-003;
2.426000000000000E+009;1.705081313848496E-001;-9.584818035364151E-002;-2.767129102721810E-003;-1.003867830149829E-003;
2.426166666666667E+009;1.712745875120163E-001;-9.666915982961655E-002;-2.697221003472805E-003;-9.561780025251210E-004;
2.426333333333334E+009;1.715963631868362E-001;-9.723889827728272E-002;-2.920750994235277E-003;-1.046455116011202E-003;
2.426500000000000E+009;1.723058670759201E-001;-9.762223809957504E-002;-3.010506974533200E-003;-7.770927622914314E-004;
2.426666666666667E+009;1.727143526077271E-001;-9.808649122714996E-002;-2.953784773126245E-003;-6.471509113907814E-004;
2.426833333333334E+009;1.733086258172989E-001;-9.848411381244659E-002;-3.050209488719702E-003;-5.513207288458943E-004;
2.427000000000000E+009;1.734654307365418E-001;-9.892063587903976E-002;-3.137980122119188E-003;-4.221938143018633E-004;
2.427166666666667E+009;1.737942248582840E-001;-9.906803816556931E-002;-3.240612335503101E-003;-2.926471061073244E-004;
2.427333333333334E+009;1.739628762006760E-001;-9.949072450399399E-002;-3.283852478489280E-003;-2.429397718515247E-004;
2.427500000000000E+009;1.738446801900864E-001;-9.968732297420502E-002;-3.262185258790851E-003;-1.336714194621891E-004;
2.427666666666667E+009;1.737976372241974E-001;-9.975276142358780E-002;-3.354953834787011E-003;7.880092016421258E-005;
