# Version 1.00
#
freq[Hz];re:Trc1_S11;im:Trc1_S11;re:Trc2_S21;im:Trc2_S21;
2.400000000000000E+009;1.508727818727493E-001;1.158141493797302E-001;-6.862846203148365E-005;1.235688338056207E-003;
2.400166666666667E+009;1.506250798702240E-001;1.135079339146614E-001;7.650848419871181E-005;1.033831737004221E-003;
2.400333333333334E+009;1.506133079528809E-001;1.115041822195053E-001;-1.571040411363356E-005;7.907758699730039E-004;
2.400500000000000E+009;1.503366976976395E-001;1.087839901447296E-001;-1.913663436425850E-004;3.882060118485242E-004;
2.400666666666667E+009;1.504074335098267E-001;1.064359024167061E-001;-2.736367459874600E-004;2.716569579206407E-004;
2.400833333333334E+009;1.503202021121979E-001;1.035245358943939E-001;-6.317516672424972E-004;1.809413370210677E-004;
2.401000000000000E+009;1.504858881235123E-001;1.009093225002289E-001;-9.584770305082202E-004;1.428253835911164E-005;
2.401166666666667E+009;1.504756659269333E-001;9.820288419723511E-002;-1.175215933471918E-003;-3.868072326440597E-006;
2.401333333333334E+009;1.506927311420441E-001;9.548500925302506E-002;-1.583976903930306E-003;-7.665784505661577E-005;
2.401500000000000E+009;1.510984599590302E-001;9.248224645853043E-002;-1.771470764651895E-003;1.685454335529357E-004;
2.401666666666667E+009;1.512067019939423E-001;8.954031020402908E-002;-2.175356028601527E-003;4.064948589075357E-004;
2.401833333333334E+009;1.517736017704010E-001;8.685620129108429E-002;-2.238669665530324E-003;6.696059135720134E-004;
2.402000000000000E+009;1.527575999498367E-001;8.407633751630783E-002;-2.603785367682576E-003;9.477196726948023E-004;
2.402166666666667E+009;1.534060686826706E-001;8.147215098142624E-002;-2.657953882589936E-003;1.284001278690994E-003;
2.402333333333334E+009;1.545528769493103E-001;7.863837480545044E-002;-2.653453033417463E-003;1.666200347244740E-003;
2.402500000000000E+009;1.559223979711533E-001;7.618872821331024E-002;-2.514478052034974E-003;1.940288231708109E-003;
2.402666666666667E+009;1.571503877639771E-001;7.349810749292374E-002;-2.436857437714934E-003;2.306730952113867E-003;
2.402833333333334E+009;1.587055921554565E-001;7.109122723340988E-002;-2.355366712436080E-003;2.556916326284409E-003;
2.403000000000000E+009;1.602549105882645E-001;6.863281130790710E-002;-2.123774960637093E-003;2.700005192309618E-003;
2.403166666666667E+009;1.621952652931213E-001;6.613205373287201E-002;-1.827319967560470E-003;3.184000728651881E-003;
2.403333333333334E+009;1.638145297765732E-001;6.372912973165512E-002;-1.606212463229895E-003;3.251875052228570E-003;
2.403500000000000E+009;1.657946407794952E-001;6.153742223978043E-002;-1.449388102628291E-003;3.351286519318819E-003;
2.403666666666667E+009;1.676211208105087E-001;5.926203727722168E-002;-1.152221579104662E-003;3.270140849053860E-003;
2.403833333333334E+009;1.697451323270798E-001;5.742795765399933E-002;-1.035808701999486E-003;3.440831555053592E-003;
2.404000000000000E+009;1.714971512556076E-001;5.521230027079582E-002;-8.211547974497080E-004;3.283140948042274E-003;
2.404166666666667E+009;1.734853088855743E-001;5.354230850934982E-002;-5.691968835890293E-004;3.401163965463638E-003;
2.404333333333334E+009;1.754537373781204E-001;5.163032561540604E-002;-4.612877382896841E-004;3.538355464115739E-003;
2.404500000000000E+009;1.774025261402130E-001;5.005165189504623E-002;-2.187669597333297E-004;3.508186899125576E-003;
2.404666666666667E+009;1.793000251054764E-001;4.885297268629074E-002;-1.813889248296619E-004;3.457995364442468E-003;
2.404833333333334E+009;1.813342422246933E-001;4.752244055271149E-002;-2.108344597218093E-005;3.434419864788652E-003;
2.405000000000000E+009;1.829148083925247E-001;4.671369493007660E-002;1.422322093276307E-004;3.609227715060115E-003;
2.405166666666667E+009;1.847375780344009E-001;4.576724022626877E-002;3.423230082262307E-004;3.350773826241493E-003;
2.405333333333334E+009;1.863820999860764E-001;4.514206573367119E-002;4.857671447098255E-004;3.529106965288520E-003;
2.405500000000000E+009;1.880961656570435E-001;4.464363679289818E-002;5.696056177839637E-004;3.526993095874786E-003;
2.405666666666667E+009;1.896067112684250E-001;4.404592141509056E-002;7.067227270454168E-004;3.466104390099645E-003;
2.405833333333334E+009;1.912077814340591E-001;4.387550055980682E-002;7.626526639796794E-004;3.469219664111733E-003;
2.406000000000000E+009;1.927179694175720E-001;4.357361420989037E-002;1.099971355870366E-003;3.574620932340622E-003;
2.406166666666667E+009;1.938526779413223E-001;4.340497404336929E-002;1.130592427216470E-003;3.566263010725379E-003;
2.406333333333334E+009;1.952642649412155E-001;4.327167198061943E-002;1.530874986201525E-003;3.579121315851808E-003;
2.406500000000000E+009;1.961941570043564E-001;4.318340867757797E-002;1.695094164460897E-003;3.346261102706194E-003;
2.406666666666667E+009;1.972769796848297E-001;4.318854212760925E-002;1.853801193647087E-003;3.489664057269692E-003;
2.406833333333334E+009;1.980384439229965E-001;4.319714382290840E-002;1.905807876028121E-003;3.309456165879965E-003;
2.407000000000000E+009;1.985277384519577E-001;4.338530451059341E-002;2.096425741910934E-003;3.227817127481103E-003;
2.407166666666667E+009;1.991932988166809E-001;4.319485649466515E-002;2.381991595029831E-003;3.242354374378920E-003;
2.407333333333334E+009;1.992292106151581E-001;4.331827163696289E-002;2.616707002744079E-003;2.992742694914341E-003;
2.407500000000000E+009;1.995827406644821E-001;4.349369183182716E-002;2.550697186961770E-003;2.761544194072485E-003;
2.407666666666667E+009;1.996407061815262E-001;4.346130788326263E-002;2.862481866031885E-003;2.658813958987594E-003;
2.407833333333334E+009;1.993859708309174E-001;4.324152693152428E-002;2.833089092746377E-003;2.496224828064442E-003;
2.408000000000000E+009;1.994507461786270E-001;4.322328045964241E-002;3.009482286870480E-003;2.406484913080931E-003;
2.408166666666667E+009;1.989576220512390E-001;4.296843335032463E-002;2.962299389764667E-003;2.186511410400271E-003;
2.408333333333334E+009;1.985032409429550E-001;4.260072857141495E-002;3.138510743156076E-003;1.979332184419036E-003;
2.408500000000000E+009;1.977022588253021E-001;4.235203936696053E-002;3.136703744530678E-003;1.932372688315809E-003;
2.408666666666667E+009;1.971423327922821E-001;4.194694012403488E-002;3.167348913848400E-003;1.741645624861121E-003;
2.408833333333334E+009;1.963904649019241E-001;4.134932160377502E-002;3.171904478222132E-003;1.654242980293930E-003;
2.409000000000000E+009;1.953317075967789E-001;4.045929387211800E-002;3.176463069394231E-003;1.482983352616429E-003;
2.409166666666667E+009;1.942780017852783E-001;3.967206552624703E-002;3.238338511437178E-003;1.471288735046983E-003;
2.409333333333334E+009;1.932992786169052E-001;3.876463696360588E-002;3.257732838392258E-003;1.282872981391847E-003;
2.409500000000000E+009;1.918766498565674E-001;3.762795776128769E-002;3.298914292827249E-003;1.087546115741134E-003;
2.409666666666667E+009;1.908919811248779E-001;3.631839901208878E-002;3.262691199779511E-003;1.111525692977011E-003;
2.409833333333334E+009;1.894337534904480E-001;3.500158712267876E-002;3.257083473727107E-003;8.122103754431009E-004;
2.410000000000000E+009;1.884341537952423E-001;3.354899212718010E-002;3.266547573730350E-003;6.122305640019476E-004;
2.410166666666667E+009;1.871186643838882E-001;3.176657482981682E-002;3.204931737855077E-003;6.137707969173789E-004;
2.410333333333334E+009;1.859036684036255E-001;3.021134436130524E-002;3.219773061573505E-003;5.302352365106344E-004;
2.410500000000000E+009;1.846658885478973E-001;2.845159173011780E-002;3.199885366484523E-003;3.521741600707173E-004;
2.410666666666667E+009;1.836010217666626E-001;2.601741813123226E-002;3.189014270901680E-003;3.483786422293633E-004;
2.410833333333334E+009;1.826474964618683E-001;2.398291788995266E-002;3.262063721194863E-003;3.035289118997753E-004;
2.411000000000000E+009;1.816715300083160E-001;2.195360511541367E-002;3.159496234729886E-003;2.007035363931209E-004;
2.411166666666667E+009;1.808363497257233E-001;1.971183903515339E-002;3.120390465483069E-003;1.436235761502758E-004;
2.411333333333334E+009;1.801577657461166E-001;1.726806536316872E-002;3.223795909434557E-003;1.060884533217177E-004;
2.411500000000000E+009;1.795203834772110E-001;1.487544551491737E-002;3.085206961259246E-003;-5.667335426551290E-005;
2.411666666666667E+009;1.790873706340790E-001;1.255115680396557E-002;3.156814491376281E-003;-1.393251441186294E-004;
2.411833333333334E+009;1.785270869731903E-001;1.006725057959557E-002;3.234793199226260E-003;-1.449042465537787E-004;
2.412000000000000E+009;1.784789711236954E-001;7.427465636283159E-003;3.289631800726056E-003;-2.705182996578515E-004;
2.412166666666667E+009;1.783952414989471E-001;5.026810802519321E-003;3.139844629913569E-003;-1.662326540099457E-004;
2.412333333333334E+009;1.782404184341431E-001;2.332631731405854E-003;3.295447910204530E-003;-4.515985492616892E-004;
2.412500000000000E+009;1.788058727979660E-001;-3.137057356070727E-004;3.279146272689104E-003;-4.407214291859418E-004;
2.412666666666667E+009;1.789347082376480E-001;-2.743338467553258E-003;3.318857168778777E-003;-5.203437758609653E-004;
2.412833333333334E+009;1.797481924295425E-001;-5.463429260998964E-003;3.497935598716140E-003;-7.153599290177226E-004;
2.413000000000000E+009;1.802750527858734E-001;-7.852791808545589E-003;3.382161026820540E-003;-7.412596023641527E-004;
2.413166666666667E+009;1.807671189308167E-001;-1.022819150239229E-002;3.579294309020042E-003;-8.389184949919581E-004;
2.413333333333334E+009;1.818022578954697E-001;-1.276204176247120E-002;3.412962658330798E-003;-9.578772587701678E-004;
2.413500000000000E+009;1.825177371501923E-001;-1.515937037765980E-002;3.445878624916077E-003;-1.311183674260974E-003;
2.413666666666667E+009;1.837202310562134E-001;-1.756396144628525E-002;3.489295486360788E-003;-1.543783349916339E-003;
2.413833333333334E+009;1.846560239791870E-001;-1.959036290645599E-002;3.602725919336081E-003;-1.807793974876404E-003;
2.414000000000000E+009;1.858598440885544E-001;-2.173578552901745E-002;3.436733735725284E-003;-1.888969447463751E-003;
2.414166666666667E+009;1.870820969343185E-001;-2.377224154770374E-002;3.274843329563737E-003;-2.252285368740559E-003;
2.414333333333334E+009;1.881934702396393E-001;-2.582923136651516E-002;3.249282483011484E-003;-2.141628414392471E-003;
2.414500000000000E+009;1.896581053733826E-001;-2.749519795179367E-002;3.248219843953848E-003;-2.450042637065053E-003;
2.414666666666667E+009;1.907165348529816E-001;-2.908114530146122E-002;3.143577370792627E-003;-2.697448944672942E-003;
2.414833333333334E+009;1.920648068189621E-001;-3.058307059109211E-002;2.808167599141598E-003;-2.838952699676156E-003;
2.415000000000000E+009;1.931899338960648E-001;-3.211296349763870E-002;2.673500217497349E-003;-3.028451930731535E-003;
2.415166666666667E+009;1.945903003215790E-001;-3.330865874886513E-002;2.425670158118010E-003;-3.172112395986915E-003;
2.415333333333334E+009;1.958322674036026E-001;-3.432781994342804E-002;2.202367177233100E-003;-3.257047152146697E-003;
2.415500000000000E+009;1.970490068197250E-001;-3.524934500455856E-002;2.136642578989267E-003;-3.272991394624114E-003;
2.415666666666667E+009;1.981984674930573E-001;-3.629671409726143E-002;1.898266840726137E-003;-3.442859044298530E-003;
2.415833333333334E+009;1.991176605224609E-001;-3.693749755620956E-002;1.682843081653118E-003;-3.482358064502478E-003;
2.416000000000000E+009;2.001464217901230E-001;-3.744672238826752E-002;1.488433685153723E-003;-3.524380968883634E-003;
2.416166666666667E+009;2.009389698505402E-001;-3.809809684753418E-002;1.313301501795650E-003;-3.396011888980866E-003;
2.416333333333334E+009;2.017895132303238E-001;-3.828597813844681E-002;1.151518430560827E-003;-3.435023361817002E-003;
2.416500000000000E+009;2.024410814046860E-001;-3.855048865079880E-002;9.149514371529222E-004;-3.473900025710464E-003;
2.416666666666667E+009;2.028709650039673E-001;-3.885306417942047E-002;8.230362436734140E-004;-3.424631897360086E-003;
2.416833333333334E+009;2.031976878643036E-001;-3.877338767051697E-002;7.293602684512734E-004;-3.420022083446384E-003;
2.417000000000000E+009;2.034781426191330E-001;-3.881718590855598E-002;4.682651488110423E-004;-3.278120420873165E-003;
2.417166666666667E+009;2.034867256879807E-001;-3.853602707386017E-002;6.118999444879592E-004;-3.488032612949610E-003;
2.417333333333334E+009;2.034323513507843E-001;-3.832594305276871E-002;4.400248290039599E-004;-3.384945215657353E-003;
2.417500000000000E+009;2.033746987581253E-001;-3.811533376574516E-002;3.037258284166455E-004;-3.375777741894126E-003;
2.417666666666667E+009;2.031021416187286E-001;-3.770222514867783E-002;1.740551815601066E-004;-3.488950664177537E-003;
2.417833333333334E+009;2.028626054525375E-001;-3.739634156227112E-002;1.454731659578101E-006;-3.420127788558602E-003;
2.418000000000000E+009;2.024444192647934E-001;-3.687356784939766E-002;-3.447149356361479E-004;-3.375521162524819E-003;
2.418166666666667E+009;2.018050104379654E-001;-3.668028488755226E-002;-2.828248543664813E-004;-3.537786193192005E-003;
2.418333333333334E+009;2.010401189327240E-001;-3.634740784764290E-002;-7.147691794671118E-004;-3.375535830855370E-003;
2.418500000000000E+009;2.002919912338257E-001;-3.609717264771462E-002;-9.034713148139417E-004;-3.394771134480834E-003;
2.418666666666667E+009;1.995537579059601E-001;-3.584931045770645E-002;-1.009323401376605E-003;-3.473452758044004E-003;
2.418833333333334E+009;1.982343643903732E-001;-3.591927140951157E-002;-1.210585469380021E-003;-3.219447564333677E-003;
2.419000000000000E+009;1.972885876893997E-001;-3.583389893174171E-002;-1.506557455286384E-003;-2.999330405145884E-003;
2.419166666666667E+009;1.960731744766235E-001;-3.595043718814850E-002;-1.668178243562579E-003;-2.813902450725436E-003;
2.419333333333334E+009;1.949080079793930E-001;-3.624500334262848E-002;-1.669193268753588E-003;-2.632162300869823E-003;
2.419500000000000E+009;1.933843940496445E-001;-3.657285496592522E-002;-1.804481260478497E-003;-2.353967633098364E-003;
2.419666666666667E+009;1.918550878763199E-001;-3.713417798280716E-002;-1.951587852090597E-003;-1.961759291589260E-003;
2.419833333333334E+009;1.902468949556351E-001;-3.769660741090775E-002;-1.853622379712760E-003;-1.709052594378591E-003;
2.420000000000000E+009;1.887643933296204E-001;-3.837070614099503E-002;-1.863382640294731E-003;-1.597280032001436E-003;
2.420166666666667E+009;1.872247904539108E-001;-3.917949274182320E-002;-1.707484829239547E-003;-1.362096867524087E-003;
2.420333333333334E+009;1.853829324245453E-001;-4.017981514334679E-002;-1.586226164363325E-003;-1.074585714377463E-003;
2.420500000000000E+009;1.837688386440277E-001;-4.152209311723709E-002;-1.382606104016304E-003;-1.113730715587735E-003;
2.420666666666667E+009;1.820944398641586E-001;-4.255199804902077E-002;-1.200339407660067E-003;-9.765137801878154E-004;
2.420833333333334E+009;1.802901178598404E-001;-4.392530769109726E-002;-9.643618250265718E-004;-8.863418479450047E-004;
2.421000000000000E+009;1.786716133356094E-001;-4.546745494008064E-002;-8.222715114243329E-004;-8.887217845767736E-004;
2.421166666666667E+009;1.771940290927887E-001;-4.717348143458366E-002;-6.612993893213570E-004;-1.082361792214215E-003;
2.421333333333334E+009;1.753606200218201E-001;-4.854402691125870E-002;-5.198785220272839E-004;-1.123911933973432E-003;
2.421500000000000E+009;1.740421354770660E-001;-5.028376355767250E-002;-2.858074440155178E-004;-1.240671845152974E-003;
2.421666666666667E+009;1.726130396127701E-001;-5.218862369656563E-002;-3.889603249263018E-004;-1.360379275865853E-003;
2.421833333333334E+009;1.712441295385361E-001;-5.399625375866890E-002;-3.473078540991992E-004;-1.594097353518009E-003;
2.422000000000000E+009;1.699271202087402E-001;-5.575861409306526E-002;-3.603681107051671E-004;-1.710825366899371E-003;
2.422166666666667E+009;1.689956635236740E-001;-5.790486931800842E-002;-3.862399025820196E-004;-1.875498914159834E-003;
2.422333333333334E+009;1.680091619491577E-001;-6.006919220089912E-002;-5.196390557102859E-004;-1.851096632890403E-003;
2.422500000000000E+009;1.671424061059952E-001;-6.191992387175560E-002;-5.029151216149330E-004;-2.135958755388856E-003;
2.422666666666667E+009;1.663374155759811E-001;-6.398881226778030E-002;-8.634719997644424E-004;-2.288862830027938E-003;
2.422833333333334E+009;1.659102439880371E-001;-6.620633602142334E-002;-9.469541255384684E-004;-2.272762823849917E-003;
2.423000000000000E+009;1.652510762214661E-001;-6.824458390474320E-002;-9.894570102915168E-004;-2.406634390354157E-003;
2.423166666666667E+009;1.649211794137955E-001;-7.021314650774002E-002;-1.257803756743670E-003;-2.280360320582986E-003;
2.423333333333334E+009;1.646392792463303E-001;-7.252477109432221E-002;-1.441031461581588E-003;-2.415162976831198E-003;
2.423500000000000E+009;1.645343005657196E-001;-7.445534318685532E-002;-1.570532331243157E-003;-2.330466872081161E-003;
2.423666666666667E+009;1.647093147039414E-001;-7.651852816343308E-002;-1.647535595111549E-003;-2.196345943957567E-003;
2.423833333333334E+009;1.645765900611877E-001;-7.839860767126083E-002;-1.925091259181500E-003;-2.194019965827465E-003;
2.424000000000000E+009;1.647392660379410E-001;-8.034639060497284E-002;-2.052420051768422E-003;-2.121279947459698E-003;
2.424166666666667E+009;1.647897958755493E-001;-8.214690536260605E-002;-2.229553880169988E-003;-2.166953636333346E-003;
2.424333333333334E+009;1.651227623224258E-001;-8.390465378761292E-002;-2.155907684937120E-003;-1.858340576291084E-003;
2.424500000000000E+009;1.656423658132553E-001;-8.572203665971756E-002;-2.154509769752622E-003;-1.934917294420302E-003;
2.424666666666667E+009;1.658748388290405E-001;-8.725812286138535E-002;-2.344570588320494E-003;-1.736323931254447E-003;
2.424833333333334E+009;1.663953810930252E-001;-8.875188231468201E-002;-2.398364013060927E-003;-1.674205763265491E-003;
2.425000000000000E+009;1.671083122491837E-001;-9.009943157434464E-002;-2.522638067603111E-003;-1.448788214474917E-003;
2.425166666666667E+009;1.675575822591782E-001;-9.136251360177994E-002;-2.592721721157432E-003;-1.525439089164138E-003;
2.425333333333334E+009;1.679616272449493E-001;-9.257352352142334E-002;-2.656890545040369E-003;-1.354560838080943E-003;
2.425500000000000E+009;1.686631292104721E-001;-9.375863522291184E-002;-2.649920526891947E-003;-1.198709243908525E-003;
2.425666666666667E+009;1.692655533552170E-001;-9.462185204029083E-002;-2.826205920428038E-003;-1.194310956634581E-003;
2.425833333333334E+009;1.697783470153809E-001;-9.544165432453156E-002;-2.748573664575815E-003;-1.127663301303983E-003;
2.426000000000000E+009;1.704765409231186E-001;-9.611900895833969E-002;-2.906576497480273E-003;-8.559103589504957E-004;
2.426166666666667E+009;1.710576713085175E-001;-9.667196869850159E-002;-2.911483403295279E-003;-7.787623908370733E-004;
2.426333333333334E+009;1.714651435613632E-001;-9.735984355211258E-002;-2.907912246882916E-003;-7.056069443933666E-004;
2.426500000000000E+009;1.721043437719345E-001;-9.777171164751053E-002;-3.098875749856234E-003;-6.576253217644990E-004;
2.426666666666667E+009;1.725790947675705E-001;-9.822247922420502E-002;-3.054258413612843E-003;-4.971549496985972E-004;
2.426833333333334E+009;1.730563640594482E-001;-9.858439862728119E-002;-3.068680642172694E-003;-4.260230634827167E-004;
2.427000000000000E+009;1.732101887464523E-001;-9.896590560674667E-002;-3.123697359114885E-003;-1.840238401200622E-004;
2.427166666666667E+009;1.735656410455704E-001;-9.914385527372360E-002;-3.362175310030580E-003;-2.372114249737933E-004;
2.427333333333334E+009;1.737293452024460E-001;-9.940545260906220E-002;-3.321684198454022E-003;6.155291339382529E-005;
2.427500000000000E+009;1.736801117658615E-001;-9.976505488157272E-002;-3.313797526061535E-003;1.146618451457471E-004;
2.427666666666667E+009;1.735421568155289E-001;-9.980251640081406E-002;-3.367681056261063E-003;4.037452163174748E-004;
