# Version 1.00
#
freq[Hz];re:Trc1_S11;im:Trc1_S11;re:Trc2_S21;im:Trc2_S21;
2.400000000000000E+009;1.509649306535721E-001;1.155568063259125E-001;1.598277449375019E-004;1.266554696485400E-003;
2.400166666666667E+009;1.506345123052597E-001;1.134304031729698E-001;1.451343123335391E-004;1.141843385994434E-003;
2.400333333333334E+009;1.505163908004761E-001;1.111926436424255E-001;-4.172357148490846E-005;7.207307498902082E-004;
2.400500000000000E+009;1.503812670707703E-001;1.087302938103676E-001;-1.376512955175713E-004;6.095593562349677E-004;
2.400666666666667E+009;1.503747254610062E-001;1.062139794230461E-001;-1.609689497854561E-004;3.346800804138184E-004;
2.400833333333334E+009;1.502092927694321E-001;1.032268255949020E-001;-6.269667064771056E-004;2.377482160227373E-004;
2.401000000000000E+009;1.503744274377823E-001;1.005391255021095E-001;-7.609042222611606E-004;8.548431651433930E-005;
2.401166666666667E+009;1.503842771053314E-001;9.782037138938904E-002;-1.179327489808202E-003;6.874152313685045E-005;
2.401333333333334E+009;1.506087034940720E-001;9.504454582929611E-002;-1.444475608877838E-003;1.651619386393577E-004;
2.401500000000000E+009;1.510661244392395E-001;9.208688884973526E-002;-1.747363829053938E-003;3.115904692094773E-004;
2.401666666666667E+009;1.512124091386795E-001;8.941975980997086E-002;-2.018662402406335E-003;3.977580345235765E-004;
2.401833333333334E+009;1.518728286027908E-001;8.669598400592804E-002;-2.040825551375747E-003;6.138933822512627E-004;
2.402000000000000E+009;1.525121331214905E-001;8.378188312053680E-002;-2.328947419300675E-003;9.569849353283644E-004;
2.402166666666667E+009;1.533602923154831E-001;8.121300488710403E-002;-2.432488137856126E-003;1.230379100888968E-003;
2.402333333333334E+009;1.545342355966568E-001;7.841735333204269E-002;-2.438281895592809E-003;1.692927675321698E-003;
2.402500000000000E+009;1.556490063667297E-001;7.571235299110413E-002;-2.431007800623775E-003;1.979778287932277E-003;
2.402666666666667E+009;1.569318771362305E-001;7.323888689279556E-002;-2.407334744930267E-003;2.193772932514548E-003;
2.402833333333334E+009;1.584186702966690E-001;7.060655951499939E-002;-2.246559597551823E-003;2.582354703918099E-003;
2.403000000000000E+009;1.600887328386307E-001;6.824075430631638E-002;-1.984511967748404E-003;2.715690061450005E-003;
2.403166666666667E+009;1.620555073022842E-001;6.577426940202713E-002;-1.696202438324690E-003;2.995211165398359E-003;
2.403333333333334E+009;1.636881083250046E-001;6.361111998558044E-002;-1.479017315432429E-003;3.183141583576798E-003;
2.403500000000000E+009;1.656549870967865E-001;6.133724376559258E-002;-1.305211917497218E-003;3.278490155935288E-003;
2.403666666666667E+009;1.676445454359055E-001;5.905612558126450E-002;-8.386783883906901E-004;3.371802158653736E-003;
2.403833333333334E+009;1.695062518119812E-001;5.695433914661408E-002;-7.014986476860941E-004;3.368658246472478E-003;
2.404000000000000E+009;1.711434572935104E-001;5.512154102325440E-002;-7.227365276776254E-004;3.268450498580933E-003;
2.404166666666667E+009;1.732273548841476E-001;5.337928235530853E-002;-4.812605911865830E-004;3.454402787610889E-003;
2.404333333333334E+009;1.751539558172226E-001;5.164752900600433E-002;-2.335001045139507E-004;3.364229574799538E-003;
2.404500000000000E+009;1.770666539669037E-001;4.985359311103821E-002;-1.949793368112296E-004;3.265045816078782E-003;
2.404666666666667E+009;1.791500896215439E-001;4.868577048182488E-002;-3.938932786695659E-005;3.332159947603941E-003;
2.404833333333334E+009;1.811151057481766E-001;4.750340059399605E-002;5.045523721491918E-006;3.366391872987151E-003;
2.405000000000000E+009;1.829063594341278E-001;4.676646366715431E-002;2.457169466651976E-004;3.349066944792867E-003;
2.405166666666667E+009;1.842986643314362E-001;4.576507583260536E-002;3.702559042721987E-004;3.396081272512674E-003;
2.405333333333334E+009;1.858142018318176E-001;4.504550993442535E-002;4.777858848683536E-004;3.403828246518970E-003;
2.405500000000000E+009;1.879032552242279E-001;4.464603587985039E-002;6.485670455731452E-004;3.557902527973056E-003;
2.405666666666667E+009;1.897401958703995E-001;4.390148818492889E-002;8.788999984972179E-004;3.351437393575907E-003;
2.405833333333334E+009;1.911094188690186E-001;4.370200634002686E-002;1.108667929656804E-003;3.500965889543295E-003;
2.406000000000000E+009;1.922526657581329E-001;4.328928142786026E-002;1.074019004590809E-003;3.355200169607997E-003;
2.406166666666667E+009;1.935946047306061E-001;4.302635043859482E-002;1.251537934876978E-003;3.325566882267594E-003;
2.406333333333334E+009;1.950563192367554E-001;4.316415637731552E-002;1.388511853292584E-003;3.503710031509399E-003;
2.406500000000000E+009;1.960644274950028E-001;4.316727817058563E-002;1.668630866333842E-003;3.288419684395194E-003;
2.406666666666667E+009;1.969731599092484E-001;4.318932443857193E-002;1.845816615968943E-003;3.280251752585173E-003;
2.406833333333334E+009;1.979481875896454E-001;4.309390112757683E-002;2.031171461567283E-003;3.333470318466425E-003;
2.407000000000000E+009;1.983822733163834E-001;4.335996881127358E-002;2.140329685062170E-003;3.064085030928254E-003;
2.407166666666667E+009;1.989358812570572E-001;4.314163327217102E-002;2.422038931399584E-003;3.014123532921076E-003;
2.407333333333334E+009;1.991306692361832E-001;4.331896081566811E-002;2.408034401014447E-003;2.698358613997698E-003;
2.407500000000000E+009;1.993339657783508E-001;4.335401952266693E-002;2.595788566395640E-003;2.790086902678013E-003;
2.407666666666667E+009;1.995083540678024E-001;4.334868863224983E-002;2.814329229295254E-003;2.632312010973692E-003;
2.407833333333334E+009;1.990968883037567E-001;4.330090805888176E-002;2.894544973969460E-003;2.391041256487370E-003;
2.408000000000000E+009;1.991406977176666E-001;4.331250488758087E-002;2.775602042675018E-003;2.237666863948107E-003;
2.408166666666667E+009;1.986860334873200E-001;4.305041581392288E-002;3.023827681317926E-003;1.949648838490248E-003;
2.408333333333334E+009;1.981709599494934E-001;4.267570748925209E-002;3.027656115591526E-003;1.947384211234748E-003;
2.408500000000000E+009;1.975313276052475E-001;4.241270571947098E-002;3.047361504286528E-003;1.716981641948223E-003;
2.408666666666667E+009;1.968335658311844E-001;4.196728765964508E-002;3.074493026360869E-003;1.713511883281171E-003;
2.408833333333334E+009;1.960819661617279E-001;4.145898669958115E-002;3.093478269875050E-003;1.528359367512167E-003;
2.409000000000000E+009;1.951118260622025E-001;4.061966389417648E-002;3.169246949255467E-003;1.360477064736188E-003;
2.409166666666667E+009;1.940713226795197E-001;3.978922963142395E-002;3.184228204190731E-003;1.278296462260187E-003;
2.409333333333334E+009;1.930481344461441E-001;3.897085040807724E-002;3.071673912927508E-003;1.138350227847695E-003;
2.409500000000000E+009;1.917937248945236E-001;3.784657269716263E-002;3.241974627599120E-003;1.197354868054390E-003;
2.409666666666667E+009;1.905707716941834E-001;3.661730885505676E-002;3.307878971099854E-003;9.034533868543804E-004;
2.409833333333334E+009;1.892616301774979E-001;3.515028208494186E-002;3.306537400931120E-003;8.203790057450533E-004;
2.410000000000000E+009;1.881220042705536E-001;3.371292352676392E-002;3.220665967091918E-003;6.278673536144197E-004;
2.410166666666667E+009;1.868977248668671E-001;3.216766566038132E-002;3.260919824242592E-003;5.368258571252227E-004;
2.410333333333334E+009;1.856769174337387E-001;3.027800284326077E-002;3.181204665452242E-003;4.482202348299325E-004;
2.410500000000000E+009;1.845407336950302E-001;2.848902717232704E-002;3.120909444987774E-003;4.502941446844488E-004;
2.410666666666667E+009;1.835688948631287E-001;2.635806985199451E-002;3.212692216038704E-003;3.299429372418672E-004;
2.410833333333334E+009;1.825170367956162E-001;2.444278821349144E-002;3.182969288900495E-003;1.106357522075996E-004;
2.411000000000000E+009;1.814434230327606E-001;2.212785929441452E-002;3.136418526992202E-003;2.074639196507633E-004;
2.411166666666667E+009;1.808121055364609E-001;1.996113732457161E-002;3.124179085716605E-003;8.140556019498035E-005;
2.411333333333334E+009;1.801680177450180E-001;1.757344789803028E-002;3.165531903505325E-003;-1.476574980188161E-004;
2.411500000000000E+009;1.792908608913422E-001;1.502780709415674E-002;3.182639135047793E-003;-7.388724043266848E-005;
2.411666666666667E+009;1.789769679307938E-001;1.276360359042883E-002;3.063963493332267E-003;-1.499439240433276E-004;
2.411833333333334E+009;1.784622520208359E-001;1.018495205789805E-002;3.152281744405627E-003;-2.197869762312621E-004;
2.412000000000000E+009;1.783936023712158E-001;7.674437947571278E-003;3.192822914570570E-003;-2.774388995021582E-004;
2.412166666666667E+009;1.783099621534348E-001;5.198467988520861E-003;3.129930002614856E-003;-4.213701758999378E-004;
2.412333333333334E+009;1.783773899078369E-001;2.421223558485508E-003;3.238656092435122E-003;-3.914468106813729E-004;
2.412500000000000E+009;1.787141114473343E-001;-4.903087028651498E-005;3.183812135830522E-003;-3.739916428457946E-004;
2.412666666666667E+009;1.788511723279953E-001;-2.533434890210629E-003;3.238928969949484E-003;-4.627977032214403E-004;
2.412833333333334E+009;1.795990765094757E-001;-5.116743501275778E-003;3.223945386707783E-003;-6.609630072489381E-004;
2.413000000000000E+009;1.800902932882309E-001;-7.714897394180298E-003;3.377915592864156E-003;-7.512093288823962E-004;
2.413166666666667E+009;1.809023618698120E-001;-1.010778080672026E-002;3.350256942212582E-003;-8.768319967202842E-004;
2.413333333333334E+009;1.817846298217773E-001;-1.261007972061634E-002;3.455512225627899E-003;-1.040442613884807E-003;
2.413500000000000E+009;1.824217438697815E-001;-1.509944349527359E-002;3.320903982967138E-003;-1.279855961911380E-003;
2.413666666666667E+009;1.834565550088882E-001;-1.726840622723103E-002;3.411539364606142E-003;-1.412396552041173E-003;
2.413833333333334E+009;1.847078800201416E-001;-1.959805004298687E-002;3.540971083566546E-003;-1.642969902604818E-003;
2.414000000000000E+009;1.858282685279846E-001;-2.176703512668610E-002;3.293649526312947E-003;-1.815197058022022E-003;
2.414166666666667E+009;1.870678216218948E-001;-2.364318445324898E-002;3.173909615725279E-003;-1.952057587914169E-003;
2.414333333333334E+009;1.880524903535843E-001;-2.570397406816483E-002;3.176579019054771E-003;-2.337263431400061E-003;
2.414500000000000E+009;1.895219534635544E-001;-2.738037705421448E-002;3.132806159555912E-003;-2.419006312265992E-003;
2.414666666666667E+009;1.907953172922134E-001;-2.913134545087814E-002;2.756476402282715E-003;-2.449671970680356E-003;
2.414833333333334E+009;1.920718401670456E-001;-3.047620318830013E-002;2.666589803993702E-003;-2.794176340103149E-003;
2.415000000000000E+009;1.933744102716446E-001;-3.207083046436310E-002;2.584957284852862E-003;-2.920448547229171E-003;
2.415166666666667E+009;1.946374326944351E-001;-3.330421820282936E-002;2.382769016548991E-003;-3.133013145998120E-003;
2.415333333333334E+009;1.959236711263657E-001;-3.434231132268906E-002;2.275747247040272E-003;-3.038869239389896E-003;
2.415500000000000E+009;1.970275491476059E-001;-3.507368639111519E-002;1.923717907629907E-003;-3.330312436446548E-003;
2.415666666666667E+009;1.981860101222992E-001;-3.608130663633347E-002;1.820722129195929E-003;-3.400816814973950E-003;
2.415833333333334E+009;1.992762833833695E-001;-3.668843954801559E-002;1.510915346443653E-003;-3.177346661686897E-003;
2.416000000000000E+009;2.001653015613556E-001;-3.733927756547928E-002;1.359599991701543E-003;-3.361622104421258E-003;
2.416166666666667E+009;2.010076493024826E-001;-3.798200562596321E-002;1.198243699036539E-003;-3.357984125614166E-003;
2.416333333333334E+009;2.019158750772476E-001;-3.810276836156845E-002;1.075129839591682E-003;-3.383002709597349E-003;
2.416500000000000E+009;2.025512009859085E-001;-3.840617835521698E-002;9.438039269298315E-004;-3.424639115110040E-003;
2.416666666666667E+009;2.030093967914581E-001;-3.871141374111176E-002;8.628420182503760E-004;-3.261430654674768E-003;
2.416833333333334E+009;2.033755034208298E-001;-3.871821984648705E-002;7.258513360284269E-004;-3.236457938328385E-003;
2.417000000000000E+009;2.037033736705780E-001;-3.855992481112480E-002;3.397457185201347E-004;-3.369496203958988E-003;
2.417166666666667E+009;2.036920934915543E-001;-3.847005963325501E-002;4.157155926804990E-004;-3.270814893767238E-003;
2.417333333333334E+009;2.037032395601273E-001;-3.817919641733170E-002;2.041675616055727E-004;-3.146786242723465E-003;
2.417500000000000E+009;2.036428749561310E-001;-3.810366988182068E-002;2.179654693463817E-004;-3.316652961075306E-003;
2.417666666666667E+009;2.032122164964676E-001;-3.765705600380898E-002;5.644667180604301E-005;-3.361958079040051E-003;
2.417833333333334E+009;2.029771208763123E-001;-3.729710727930069E-002;-9.937077265931293E-005;-3.308721119537950E-003;
2.418000000000000E+009;2.026425898075104E-001;-3.683241829276085E-002;-3.166928363498300E-004;-3.326775506138802E-003;
2.418166666666667E+009;2.020875811576843E-001;-3.648841008543968E-002;-3.993782156612724E-004;-3.259488614276052E-003;
2.418333333333334E+009;2.012265175580978E-001;-3.617150336503983E-002;-6.233711610548198E-004;-3.244733437895775E-003;
2.418500000000000E+009;2.004619240760803E-001;-3.607413545250893E-002;-7.878747419454157E-004;-3.301920602098107E-003;
2.418666666666667E+009;1.998877674341202E-001;-3.567373007535934E-002;-1.023587188683450E-003;-3.297808812931180E-003;
2.418833333333334E+009;1.986095905303955E-001;-3.578104451298714E-002;-1.287608989514411E-003;-3.110927995294333E-003;
2.419000000000000E+009;1.974495053291321E-001;-3.563812002539635E-002;-1.492245355620980E-003;-2.966756932437420E-003;
2.419166666666667E+009;1.963183581829071E-001;-3.583542257547379E-002;-1.667707692831755E-003;-2.689718501642346E-003;
2.419333333333334E+009;1.950368732213974E-001;-3.620585426688194E-002;-1.812750939279795E-003;-2.437903080135584E-003;
2.419500000000000E+009;1.935301423072815E-001;-3.640678524971008E-002;-1.773832016624510E-003;-2.125442726537585E-003;
2.419666666666667E+009;1.919241249561310E-001;-3.707920759916306E-002;-1.811874913983047E-003;-2.044628607109189E-003;
2.419833333333334E+009;1.903719455003738E-001;-3.771587088704109E-002;-1.856387825682759E-003;-1.775843440555036E-003;
2.420000000000000E+009;1.887367665767670E-001;-3.836020082235336E-002;-1.762960571795702E-003;-1.494521158747375E-003;
2.420166666666667E+009;1.870584934949875E-001;-3.912958875298500E-002;-1.591004198417068E-003;-1.244062557816505E-003;
2.420333333333334E+009;1.854364424943924E-001;-4.033107683062553E-002;-1.488982932642102E-003;-9.940393501892686E-004;
2.420500000000000E+009;1.836474984884262E-001;-4.134667664766312E-002;-1.273043453693390E-003;-8.807801059447229E-004;
2.420666666666667E+009;1.820344626903534E-001;-4.248932003974915E-002;-1.078676548786461E-003;-7.650725892744958E-004;
2.420833333333334E+009;1.803029775619507E-001;-4.385561868548393E-002;-1.015127403661609E-003;-8.001314126886427E-004;
2.421000000000000E+009;1.786210387945175E-001;-4.544202983379364E-002;-5.326690734364092E-004;-9.444829775020480E-004;
2.421166666666667E+009;1.771295666694641E-001;-4.695569723844528E-002;-4.517601337283850E-004;-9.284612606279552E-004;
2.421333333333334E+009;1.754001975059509E-001;-4.830700159072876E-002;-4.446132224984467E-004;-1.086369622498751E-003;
2.421500000000000E+009;1.738984584808350E-001;-5.017741769552231E-002;-1.877500035334379E-004;-1.062026363797486E-003;
2.421666666666667E+009;1.725191175937653E-001;-5.208164453506470E-002;-2.984096936415881E-004;-1.500357757322490E-003;
2.421833333333334E+009;1.712803095579147E-001;-5.382439494132996E-002;-1.895613531814888E-004;-1.508373068645597E-003;
2.422000000000000E+009;1.699804961681366E-001;-5.565886944532394E-002;-2.030122413998470E-004;-1.640199217945337E-003;
2.422166666666667E+009;1.691321283578873E-001;-5.771549791097641E-002;-3.266317944508046E-004;-1.830812660045922E-003;
2.422333333333334E+009;1.679334193468094E-001;-5.990479886531830E-002;-4.126781132072210E-004;-1.970982179045677E-003;
2.422500000000000E+009;1.671297699213028E-001;-6.174220517277718E-002;-4.585139395203441E-004;-2.099975943565369E-003;
2.422666666666667E+009;1.664168834686279E-001;-6.395590305328369E-002;-6.863658782094717E-004;-2.260389272123575E-003;
2.422833333333334E+009;1.658221185207367E-001;-6.602042913436890E-002;-7.585347048006952E-004;-2.211300190538168E-003;
2.423000000000000E+009;1.652019619941711E-001;-6.814505904912949E-002;-9.569128160364926E-004;-2.192010637372732E-003;
2.423166666666667E+009;1.649570465087891E-001;-7.026291638612747E-002;-1.102437614463270E-003;-2.246673917397857E-003;
2.423333333333334E+009;1.646454334259033E-001;-7.231906801462174E-002;-1.320137293078005E-003;-2.366698114201427E-003;
2.423500000000000E+009;1.645517945289612E-001;-7.430177181959152E-002;-1.456618658266962E-003;-2.427207771688700E-003;
2.423666666666667E+009;1.646119654178619E-001;-7.650153338909149E-002;-1.680738874711096E-003;-2.221561968326569E-003;
2.423833333333334E+009;1.645730286836624E-001;-7.825599610805512E-002;-1.700411201454699E-003;-2.173536922782660E-003;
2.424000000000000E+009;1.647514849901199E-001;-8.032096177339554E-002;-1.838086522184312E-003;-2.121771452948451E-003;
2.424166666666667E+009;1.649603396654129E-001;-8.220358937978745E-002;-1.989073585718870E-003;-2.065883949398994E-003;
2.424333333333334E+009;1.652861088514328E-001;-8.381897211074829E-002;-2.033258089795709E-003;-1.873419969342649E-003;
2.424500000000000E+009;1.656722724437714E-001;-8.590535819530487E-002;-2.217995002865791E-003;-1.860385062173009E-003;
2.424666666666667E+009;1.659918427467346E-001;-8.743412792682648E-002;-2.246187301352620E-003;-1.782596809789538E-003;
2.424833333333334E+009;1.667588502168655E-001;-8.883144706487656E-002;-2.193603431805968E-003;-1.668520853854716E-003;
2.425000000000000E+009;1.670647710561752E-001;-9.025364369153976E-002;-2.344984794035554E-003;-1.587298582307994E-003;
2.425166666666667E+009;1.676180362701416E-001;-9.150850027799606E-002;-2.552702557295561E-003;-1.324542448855937E-003;
2.425333333333334E+009;1.681086122989655E-001;-9.263920038938522E-002;-2.565388102084398E-003;-1.329643419012427E-003;
2.425500000000000E+009;1.688444018363953E-001;-9.372512996196747E-002;-2.547463867813349E-003;-1.259997137822211E-003;
2.425666666666667E+009;1.693778932094574E-001;-9.456263482570648E-002;-2.667730208486319E-003;-1.105081406421959E-003;
2.425833333333334E+009;1.698967516422272E-001;-9.555512666702271E-002;-2.644679043442011E-003;-1.012180349789560E-003;
2.426000000000000E+009;1.704835295677185E-001;-9.613043814897537E-002;-2.718009287491441E-003;-1.037284731864929E-003;
2.426166666666667E+009;1.710944175720215E-001;-9.676637500524521E-002;-2.846149262040854E-003;-9.344137506559491E-004;
2.426333333333334E+009;1.715971976518631E-001;-9.741979092359543E-002;-2.937172306701541E-003;-6.994469440542162E-004;
2.426500000000000E+009;1.721223741769791E-001;-9.780517965555191E-002;-2.911665244027972E-003;-6.238870555534959E-004;
2.426666666666667E+009;1.727111339569092E-001;-9.833332151174545E-002;-2.909403527155519E-003;-6.498281727544963E-004;
2.426833333333334E+009;1.732144206762314E-001;-9.870082885026932E-002;-3.079227870330215E-003;-5.127891199663281E-004;
2.427000000000000E+009;1.733179539442062E-001;-9.892039000988007E-002;-3.052272368222475E-003;-3.647990233730525E-004;
2.427166666666667E+009;1.736469715833664E-001;-9.917476773262024E-002;-2.914604963734746E-003;-2.136011171387509E-004;
2.427333333333334E+009;1.737839281558991E-001;-9.954343736171722E-002;-3.027588361874223E-003;-1.049505444825627E-004;
2.427500000000000E+009;1.737142354249954E-001;-9.985144436359406E-002;-3.221543040126562E-003;3.440886939642951E-005;
2.427666666666667E+009;1.737613230943680E-001;-9.988683462142944E-002;-3.224451094865799E-003;1.185572764370590E-004;
