# Version 1.00
#
freq[Hz];re:Trc1_S11;im:Trc1_S11;re:Trc2_S21;im:Trc2_S21;
2.400000000000000E+009;1.559206992387772E-001;1.111302748322487E-001;1.971417805179954E-003;-2.915091579779983E-003;
2.400166666666667E+009;1.553983390331268E-001;1.090329214930534E-001;1.839136704802513E-003;-3.007274586707354E-003;
2.400333333333334E+009;1.551016420125961E-001;1.067631691694260E-001;1.762492232955992E-003;-3.038984490558505E-003;
2.400500000000000E+009;1.549030840396881E-001;1.041850671172142E-001;1.754012890160084E-003;-3.287800820544362E-003;
2.400666666666667E+009;1.544688791036606E-001;1.016440764069557E-001;1.489237765781581E-003;-3.236713586375117E-003;
2.400833333333334E+009;1.543111503124237E-001;9.870699793100357E-002;1.274978858418763E-003;-3.164463676512241E-003;
2.401000000000000E+009;1.541489660739899E-001;9.584381431341171E-002;1.397289801388979E-003;-3.313690191134810E-003;
2.401166666666667E+009;1.540398150682449E-001;9.283259510993958E-002;1.217923243530095E-003;-3.573253285139799E-003;
2.401333333333334E+009;1.541378945112228E-001;9.007298201322556E-002;8.978365221992135E-004;-3.478103084489703E-003;
2.401500000000000E+009;1.542596518993378E-001;8.704134821891785E-002;7.805406348779798E-004;-3.705250797793269E-003;
2.401666666666667E+009;1.541727036237717E-001;8.394781500101090E-002;5.980234709568322E-004;-3.700457047671080E-003;
2.401833333333334E+009;1.548740565776825E-001;8.118987083435059E-002;4.254929663147777E-004;-3.716805484145880E-003;
2.402000000000000E+009;1.552897542715073E-001;7.815462350845337E-002;1.096848645829596E-004;-3.854105947539210E-003;
2.402166666666667E+009;1.560191661119461E-001;7.556685805320740E-002;-7.967088458826765E-005;-3.634447930380702E-003;
2.402333333333334E+009;1.568149477243424E-001;7.239594310522080E-002;-3.335636283736676E-004;-3.680523252114654E-003;
2.402500000000000E+009;1.577191054821014E-001;6.977233290672302E-002;-4.523262905422598E-004;-3.433664795011282E-003;
2.402666666666667E+009;1.589487493038178E-001;6.710748374462128E-002;-6.297154468484223E-004;-3.515023970976472E-003;
2.402833333333334E+009;1.601250469684601E-001;6.458779424428940E-002;-1.011793501675129E-003;-3.243128769099712E-003;
2.403000000000000E+009;1.614175438880920E-001;6.197176128625870E-002;-1.007911982014775E-003;-3.315028501674533E-003;
2.403166666666667E+009;1.632091999053955E-001;5.938762053847313E-002;-8.763909572735429E-004;-2.992104506120086E-003;
2.403333333333334E+009;1.647376269102097E-001;5.705390498042107E-002;-1.133260666392744E-003;-3.100511152297258E-003;
2.403500000000000E+009;1.663924008607864E-001;5.473370477557182E-002;-1.258461037650704E-003;-2.787926699966192E-003;
2.403666666666667E+009;1.683362722396851E-001;5.259242653846741E-002;-1.156204962171614E-003;-2.723506651818752E-003;
2.403833333333334E+009;1.699630618095398E-001;5.049326643347740E-002;-1.231933943927288E-003;-2.629066351801157E-003;
2.404000000000000E+009;1.716738045215607E-001;4.837127774953842E-002;-1.429645344614983E-003;-2.533469349145889E-003;
2.404166666666667E+009;1.735802888870239E-001;4.673174768686295E-002;-1.334124593995512E-003;-2.389870118349791E-003;
2.404333333333334E+009;1.753256469964981E-001;4.493276402354240E-002;-1.244182931259275E-003;-2.219476969912648E-003;
2.404500000000000E+009;1.771756857633591E-001;4.329569265246391E-002;-1.389338751323521E-003;-2.267067320644856E-003;
2.404666666666667E+009;1.789653897285461E-001;4.213868826627731E-002;-1.386238029226661E-003;-2.156107453629375E-003;
2.404833333333334E+009;1.808334141969681E-001;4.085197672247887E-002;-1.410621684044600E-003;-2.143914811313152E-003;
2.405000000000000E+009;1.824905872344971E-001;3.995824605226517E-002;-1.540531986393035E-003;-2.084792125970125E-003;
2.405166666666667E+009;1.841428875923157E-001;3.919099643826485E-002;-1.403888571076095E-003;-2.145026810467243E-003;
2.405333333333334E+009;1.858047544956207E-001;3.856423124670982E-002;-1.665703952312470E-003;-1.919532660394907E-003;
2.405500000000000E+009;1.875318139791489E-001;3.808952495455742E-002;-1.674571423791349E-003;-2.026647096499801E-003;
2.405666666666667E+009;1.890325546264648E-001;3.769695758819580E-002;-1.718775602057576E-003;-1.921046059578657E-003;
2.405833333333334E+009;1.904616504907608E-001;3.757489472627640E-002;-1.779926591552794E-003;-1.759325852617621E-003;
2.406000000000000E+009;1.918182075023651E-001;3.743497654795647E-002;-1.831445493735373E-003;-1.737224403768778E-003;
2.406166666666667E+009;1.931646764278412E-001;3.724288940429688E-002;-1.938525470905006E-003;-1.525869127362967E-003;
2.406333333333334E+009;1.943450272083283E-001;3.734949976205826E-002;-2.044164342805743E-003;-1.488783280365169E-003;
2.406500000000000E+009;1.954812854528427E-001;3.746075555682182E-002;-1.939805573783815E-003;-1.496209646575153E-003;
2.406666666666667E+009;1.963886916637421E-001;3.759849444031715E-002;-1.968087628483772E-003;-1.352070947177708E-003;
2.406833333333334E+009;1.971017569303513E-001;3.785674646496773E-002;-1.980053493753076E-003;-1.162530155852437E-003;
2.407000000000000E+009;1.976376622915268E-001;3.826374560594559E-002;-1.986009534448385E-003;-1.172647578641772E-003;
2.407166666666667E+009;1.982985585927963E-001;3.825515508651733E-002;-1.836905372329056E-003;-8.891655597835779E-004;
2.407333333333334E+009;1.983781605958939E-001;3.853100910782814E-002;-1.930407830514014E-003;-9.661546209827066E-004;
2.407500000000000E+009;1.986383795738220E-001;3.901268541812897E-002;-1.830570516176522E-003;-8.745742379687727E-004;
2.407666666666667E+009;1.987496018409729E-001;3.918524459004402E-002;-1.902805524878204E-003;-8.446406573057175E-004;
2.407833333333334E+009;1.983394026756287E-001;3.928327560424805E-002;-1.771268784068525E-003;-7.009991677477956E-004;
2.408000000000000E+009;1.984223425388336E-001;3.939689323306084E-002;-1.628036494366825E-003;-8.237553993239999E-004;
2.408166666666667E+009;1.978437751531601E-001;3.933170437812805E-002;-1.929267309606075E-003;-7.665297598578036E-004;
2.408333333333334E+009;1.974158138036728E-001;3.918567672371864E-002;-1.736287144012749E-003;-6.962714833207429E-004;
2.408500000000000E+009;1.967895776033402E-001;3.919741138815880E-002;-1.775817130692303E-003;-5.915379151701927E-004;
2.408666666666667E+009;1.962088495492935E-001;3.887327760457993E-002;-1.673353137448430E-003;-5.822855164296925E-004;
2.408833333333334E+009;1.953770816326141E-001;3.851834684610367E-002;-1.565801561810076E-003;-5.194281693547964E-004;
2.409000000000000E+009;1.942737996578217E-001;3.775501623749733E-002;-1.408142154105008E-003;-5.893429624848068E-004;
2.409166666666667E+009;1.932898014783859E-001;3.722983226180077E-002;-1.406774623319507E-003;-4.800222232006490E-004;
2.409333333333334E+009;1.922149211168289E-001;3.644487634301186E-002;-1.396992825902998E-003;-5.294658476486802E-004;
2.409500000000000E+009;1.909940540790558E-001;3.552759811282158E-002;-1.297433394938707E-003;-5.726591916754842E-004;
2.409666666666667E+009;1.898125261068344E-001;3.442408517003059E-002;-1.342357718385756E-003;-6.669664289802313E-004;
2.409833333333334E+009;1.884929090738297E-001;3.318515419960022E-002;-1.128803589381278E-003;-6.531984545290470E-004;
2.410000000000000E+009;1.872949153184891E-001;3.175646439194679E-002;-1.138126128353179E-003;-7.227836176753044E-004;
2.410166666666667E+009;1.861285418272018E-001;3.008146584033966E-002;-1.186543493531644E-003;-9.028246277011931E-004;
2.410333333333334E+009;1.849323213100433E-001;2.869801782071590E-002;-9.815153898671269E-004;-8.530807681381702E-004;
2.410500000000000E+009;1.836984157562256E-001;2.700778283178806E-002;-1.133598736487329E-003;-1.033406937494874E-003;
2.410666666666667E+009;1.826146245002747E-001;2.470422722399235E-002;-1.304572331719101E-003;-1.249903114512563E-003;
2.410833333333334E+009;1.817748099565506E-001;2.266225963830948E-002;-1.416813116520643E-003;-1.108540687710047E-003;
2.411000000000000E+009;1.806160807609558E-001;2.045438811182976E-002;-1.497806981205940E-003;-1.214989693835378E-003;
2.411166666666667E+009;1.798340231180191E-001;1.860428042709827E-002;-1.567662809975445E-003;-1.214187010191381E-003;
2.411333333333334E+009;1.790496855974197E-001;1.573357917368412E-002;-1.565619255416095E-003;-1.278145937249064E-003;
2.411500000000000E+009;1.782778650522232E-001;1.358713116496801E-002;-1.835086732171476E-003;-1.419127569533885E-003;
2.411666666666667E+009;1.779678910970688E-001;1.105108577758074E-002;-2.034593839198351E-003;-1.504413667134941E-003;
2.411833333333334E+009;1.774150878190994E-001;8.464383892714977E-003;-2.240702044218779E-003;-1.259896089322865E-003;
2.412000000000000E+009;1.772427558898926E-001;5.792182404547930E-003;-2.290953183546662E-003;-1.285491860471666E-003;
2.412166666666667E+009;1.773343682289124E-001;3.422495909035206E-003;-2.568585798144341E-003;-9.698898647911847E-004;
2.412333333333334E+009;1.772953122854233E-001;8.274617721326649E-004;-2.594840480014682E-003;-1.116900704801083E-003;
2.412500000000000E+009;1.775455176830292E-001;-1.877858652733266E-003;-2.814982784911990E-003;-1.098520937375724E-003;
2.412666666666667E+009;1.779244542121887E-001;-4.595637321472168E-003;-2.892198506742716E-003;-6.575382431037724E-004;
2.412833333333334E+009;1.785108447074890E-001;-7.062175311148167E-003;-3.015676746144891E-003;-6.159680779092014E-004;
2.413000000000000E+009;1.792034208774567E-001;-9.707248769700527E-003;-3.334100823849440E-003;-2.802595554385334E-004;
2.413166666666667E+009;1.799165904521942E-001;-1.220607105642557E-002;-3.200157312676311E-003;-5.910802792641334E-005;
2.413333333333334E+009;1.808837503194809E-001;-1.489407289773226E-002;-3.176889149472117E-003;1.294683752348647E-004;
2.413500000000000E+009;1.816825568675995E-001;-1.728667691349983E-002;-3.118910593912005E-003;3.314328205306083E-004;
2.413666666666667E+009;1.827655285596848E-001;-1.975422166287899E-002;-3.058124566450715E-003;6.361990817822516E-004;
2.413833333333334E+009;1.839226186275482E-001;-2.208986505866051E-002;-3.281657351180911E-003;8.247552905231714E-004;
2.414000000000000E+009;1.851513385772705E-001;-2.428181469440460E-002;-3.099230350926518E-003;1.002341159619391E-003;
2.414166666666667E+009;1.865042001008987E-001;-2.631018869578838E-002;-2.989610191434622E-003;1.107268850319088E-003;
2.414333333333334E+009;1.875162124633789E-001;-2.857562527060509E-002;-2.906686626374722E-003;1.292722648940980E-003;
2.414500000000000E+009;1.890108883380890E-001;-3.025817871093750E-002;-2.638227306306362E-003;1.582541270181537E-003;
2.414666666666667E+009;1.903725713491440E-001;-3.185068815946579E-002;-2.526942407712340E-003;1.413253601640463E-003;
2.414833333333334E+009;1.916228979825974E-001;-3.346806392073631E-002;-2.418257063254714E-003;1.555701135657728E-003;
2.415000000000000E+009;1.930449008941650E-001;-3.497725725173950E-002;-2.373804338276386E-003;1.627096789889038E-003;
2.415166666666667E+009;1.944830268621445E-001;-3.619963303208351E-002;-2.352177631109953E-003;1.703008194454014E-003;
2.415333333333334E+009;1.958724260330200E-001;-3.721425682306290E-002;-2.163040917366743E-003;1.814427901990712E-003;
2.415500000000000E+009;1.971728205680847E-001;-3.817191720008850E-002;-2.069692825898528E-003;1.817731885239482E-003;
2.415666666666667E+009;1.985306739807129E-001;-3.910643234848976E-002;-2.017952734604478E-003;1.862243516370654E-003;
2.415833333333334E+009;1.996072083711624E-001;-3.968657553195953E-002;-2.011988544836640E-003;2.032960765063763E-003;
2.416000000000000E+009;2.006365805864334E-001;-4.044930264353752E-002;-1.903956988826394E-003;1.959500834345818E-003;
2.416166666666667E+009;2.017067819833756E-001;-4.101663455367088E-002;-1.817463198676705E-003;2.074461430311203E-003;
2.416333333333334E+009;2.025706619024277E-001;-4.131467640399933E-002;-1.661077723838389E-003;2.107183216139674E-003;
2.416500000000000E+009;2.033768296241760E-001;-4.156060516834259E-002;-1.532659516669810E-003;1.912201987579465E-003;
2.416666666666667E+009;2.040642648935318E-001;-4.179991409182549E-002;-1.486666034907103E-003;2.092825481668115E-003;
2.416833333333334E+009;2.045424878597260E-001;-4.189017415046692E-002;-1.469138893298805E-003;2.270224737003446E-003;
2.417000000000000E+009;2.049183249473572E-001;-4.194605350494385E-002;-1.219627913087606E-003;2.265008166432381E-003;
2.417166666666667E+009;2.048821747303009E-001;-4.178772494196892E-002;-1.185736269690096E-003;2.356705954298377E-003;
2.417333333333334E+009;2.050375342369080E-001;-4.142396524548531E-002;-1.069592661224306E-003;2.411924302577972E-003;
2.417500000000000E+009;2.050433754920960E-001;-4.129019379615784E-002;-1.112028025090694E-003;2.366623841226101E-003;
2.417666666666667E+009;2.047375142574310E-001;-4.099110141396523E-002;-9.085478959605098E-004;2.312950091436505E-003;
2.417833333333334E+009;2.044347375631332E-001;-4.046005010604858E-002;-9.541734470985830E-004;2.418888732790947E-003;
2.418000000000000E+009;2.039824426174164E-001;-4.011755436658859E-002;-5.731770652346313E-004;2.472439082339406E-003;
2.418166666666667E+009;2.033390402793884E-001;-3.971073031425476E-002;-6.152366986498237E-004;2.362206345424056E-003;
2.418333333333334E+009;2.026167958974838E-001;-3.949918597936630E-002;-4.961620434187353E-004;2.381491009145975E-003;
2.418500000000000E+009;2.017920613288879E-001;-3.931150585412979E-002;-4.738278221338987E-004;2.384166000410914E-003;
2.418666666666667E+009;2.009916752576828E-001;-3.890409693121910E-002;-3.100317553617060E-004;2.408765722066164E-003;
2.418833333333334E+009;1.998723596334457E-001;-3.900968283414841E-002;-2.028100716415793E-004;2.364614279940724E-003;
2.419000000000000E+009;1.984923928976059E-001;-3.880437463521957E-002;-1.199691250803880E-004;2.271665725857019E-003;
2.419166666666667E+009;1.972857564687729E-001;-3.900152817368507E-002;-3.059375012526289E-005;2.335340948775411E-003;
2.419333333333334E+009;1.958481073379517E-001;-3.920457139611244E-002;8.290851110359654E-005;2.157091861590743E-003;
2.419500000000000E+009;1.942885369062424E-001;-3.931374847888947E-002;3.445181355345994E-004;2.209451515227556E-003;
2.419666666666667E+009;1.927097290754318E-001;-3.998285904526711E-002;2.943917643278837E-004;2.039963845163584E-003;
2.419833333333334E+009;1.911786049604416E-001;-4.052952677011490E-002;3.840741992462426E-004;1.994631951674819E-003;
2.420000000000000E+009;1.894340813159943E-001;-4.114924743771553E-002;4.139115917496383E-004;1.797848497517407E-003;
2.420166666666667E+009;1.876249909400940E-001;-4.199656099081039E-002;2.996123512275517E-004;1.870090840384364E-003;
2.420333333333334E+009;1.860114932060242E-001;-4.295541718602181E-002;2.685009967535734E-004;1.675914973020554E-003;
2.420500000000000E+009;1.840399652719498E-001;-4.416051879525185E-002;4.626905720215291E-004;1.708852127194405E-003;
2.420666666666667E+009;1.823910623788834E-001;-4.520454257726669E-002;1.783751649782062E-004;1.737159909680486E-003;
2.420833333333334E+009;1.803799122571945E-001;-4.649200662970543E-002;2.154903195332736E-004;1.763361622579396E-003;
2.421000000000000E+009;1.788188070058823E-001;-4.805265367031097E-002;2.369779831496999E-004;1.499369041994214E-003;
2.421166666666667E+009;1.771596968173981E-001;-4.983063414692879E-002;3.144850488752127E-004;1.829973887652159E-003;
2.421333333333334E+009;1.753703057765961E-001;-5.124732479453087E-002;3.139989275950939E-004;1.613781205378473E-003;
2.421500000000000E+009;1.738657504320145E-001;-5.313381925225258E-002;5.338423652574420E-004;1.601384836249054E-003;
2.421666666666667E+009;1.725326627492905E-001;-5.504180863499641E-002;3.575299342628568E-004;1.571415574289858E-003;
2.421833333333334E+009;1.712742596864700E-001;-5.696245655417442E-002;3.695381747093052E-004;1.527654123492539E-003;
2.422000000000000E+009;1.698513627052307E-001;-5.909230187535286E-002;4.302962042856962E-004;1.517620286904275E-003;
2.422166666666667E+009;1.686458885669708E-001;-6.122460216283798E-002;5.166989285498858E-004;1.649238518439233E-003;
2.422333333333334E+009;1.675716489553452E-001;-6.342732161283493E-002;5.432835314422846E-004;1.491260132752359E-003;
2.422500000000000E+009;1.666525006294251E-001;-6.556375324726105E-002;5.977481487207115E-004;1.487975358031690E-003;
2.422666666666667E+009;1.658437699079514E-001;-6.772180646657944E-002;6.450339569710195E-004;1.501557067967951E-003;
2.422833333333334E+009;1.650993227958679E-001;-6.999684125185013E-002;6.090409005992115E-004;1.427154522389174E-003;
2.423000000000000E+009;1.644721180200577E-001;-7.238876819610596E-002;6.347171729430556E-004;1.373509177938104E-003;
2.423166666666667E+009;1.640122830867767E-001;-7.464712858200073E-002;7.383452611975372E-004;1.509417546913028E-003;
2.423333333333334E+009;1.636768132448196E-001;-7.697127014398575E-002;6.651692674495280E-004;1.411596080288291E-003;
2.423500000000000E+009;1.634364128112793E-001;-7.892947643995285E-002;7.253498770296574E-004;1.414647675119340E-003;
2.423666666666667E+009;1.635323017835617E-001;-8.116209506988525E-002;6.820133421570063E-004;1.479780185036361E-003;
2.423833333333334E+009;1.633079946041107E-001;-8.306111395359039E-002;7.700838032178581E-004;1.544212922453880E-003;
2.424000000000000E+009;1.635248959064484E-001;-8.522500097751617E-002;8.307796088047326E-004;1.519697019830346E-003;
2.424166666666667E+009;1.635403633117676E-001;-8.682151883840561E-002;9.797235252335668E-004;1.478900900110602E-003;
2.424333333333334E+009;1.639552414417267E-001;-8.873145282268524E-002;1.068268902599812E-003;1.548338448628783E-003;
2.424500000000000E+009;1.643075644969940E-001;-9.066095948219299E-002;1.117225969210267E-003;1.559607335366309E-003;
2.424666666666667E+009;1.645395308732987E-001;-9.227225184440613E-002;1.071798498742282E-003;1.386093208566308E-003;
2.424833333333334E+009;1.653690785169601E-001;-9.378008544445038E-002;1.141497632488608E-003;1.358535722829402E-003;
2.425000000000000E+009;1.658589988946915E-001;-9.525586664676666E-002;1.162069267593324E-003;1.241541933268309E-003;
2.425166666666667E+009;1.662505418062210E-001;-9.657683223485947E-002;1.425712951458991E-003;1.161599997431040E-003;
2.425333333333334E+009;1.668211221694946E-001;-9.779569506645203E-002;1.244791666977108E-003;1.090379548259080E-003;
2.425500000000000E+009;1.673791408538818E-001;-9.892201423645020E-002;1.316723646596074E-003;1.197538455016911E-003;
2.425666666666667E+009;1.680983752012253E-001;-9.975330531597138E-002;1.228170818649232E-003;1.142254099249840E-003;
2.425833333333334E+009;1.685768961906433E-001;-1.007661074399948E-001;1.255390350706875E-003;1.066188677214086E-003;
2.426000000000000E+009;1.691663116216660E-001;-1.011929586529732E-001;1.224358798936009E-003;1.008286140859127E-003;
2.426166666666667E+009;1.698412746191025E-001;-1.020229235291481E-001;1.237877062521875E-003;9.814188815653324E-004;
2.426333333333334E+009;1.702444404363632E-001;-1.026262491941452E-001;1.403194386512041E-003;1.009537372738123E-003;
2.426500000000000E+009;1.709613651037216E-001;-1.028816401958466E-001;1.306168385781348E-003;8.841457893140614E-004;
2.426666666666667E+009;1.714245378971100E-001;-1.033554002642632E-001;1.476243021897972E-003;1.021219068206847E-003;
2.426833333333334E+009;1.720311045646668E-001;-1.035810410976410E-001;1.347143668681383E-003;9.174843435175717E-004;
2.427000000000000E+009;1.721523851156235E-001;-1.038099005818367E-001;1.581032760441303E-003;8.674797718413174E-004;
2.427166666666667E+009;1.723957061767578E-001;-1.039822250604630E-001;1.410631928592920E-003;9.459484717808664E-004;
2.427333333333334E+009;1.726145595312119E-001;-1.042338311672211E-001;1.509706606157124E-003;9.200235945172608E-004;
2.427500000000000E+009;1.726443171501160E-001;-1.041539087891579E-001;1.464873552322388E-003;8.081106934696436E-004;
2.427666666666667E+009;1.724982857704163E-001;-1.041997000575066E-001;1.624163938686252E-003;7.523819222114980E-004;
