# Version 1.00
#
freq[Hz];re:Trc1_S11;im:Trc1_S11;re:Trc2_S21;im:Trc2_S21;
2.400000000000000E+009;1.571804881095886E-001;6.087408959865570E-002;-2.899887505918741E-003;1.264551770873368E-003;
2.400166666666667E+009;1.573123782873154E-001;5.926223844289780E-002;-2.878652885556221E-003;1.491361763328314E-003;
2.400333333333334E+009;1.571816056966782E-001;5.731977894902229E-002;-2.710399916395545E-003;1.584751065820456E-003;
2.400500000000000E+009;1.574603617191315E-001;5.528505146503449E-002;-2.561517991125584E-003;1.578862313181162E-003;
2.400666666666667E+009;1.576524078845978E-001;5.314853042364121E-002;-2.622489118948579E-003;1.733117387630045E-003;
2.400833333333334E+009;1.578182280063629E-001;5.118842422962189E-002;-2.482927637174726E-003;1.889047678560019E-003;
2.401000000000000E+009;1.581863015890122E-001;4.896245896816254E-002;-2.375653479248285E-003;2.093477174639702E-003;
2.401166666666667E+009;1.585738956928253E-001;4.697052761912346E-002;-2.099262084811926E-003;2.045551314949989E-003;
2.401333333333334E+009;1.587855964899063E-001;4.496777057647705E-002;-2.056302735581994E-003;2.146680606529117E-003;
2.401500000000000E+009;1.593597531318665E-001;4.294176772236824E-002;-1.940326066687703E-003;2.057933248579502E-003;
2.401666666666667E+009;1.597347110509872E-001;4.083966091275215E-002;-1.728291157633066E-003;2.258840715512633E-003;
2.401833333333334E+009;1.603813320398331E-001;3.906203433871269E-002;-1.545846811495721E-003;2.250556834042072E-003;
2.402000000000000E+009;1.607728004455566E-001;3.710372745990753E-002;-1.475734286941588E-003;2.343621337786317E-003;
2.402166666666667E+009;1.615186631679535E-001;3.516431897878647E-002;-1.261002034880221E-003;2.264279173687100E-003;
2.402333333333334E+009;1.621760129928589E-001;3.340735659003258E-002;-1.092636142857373E-003;2.227313350886107E-003;
2.402500000000000E+009;1.631206870079041E-001;3.175900131464005E-002;-9.126944933086634E-004;2.284918678924441E-003;
2.402666666666667E+009;1.636917889118195E-001;3.008896671235561E-002;-7.564400439150631E-004;2.321731066331267E-003;
2.402833333333334E+009;1.645903438329697E-001;2.852041833102703E-002;-5.830396548844874E-004;2.103646285831928E-003;
2.403000000000000E+009;1.653935760259628E-001;2.705771476030350E-002;-4.312545643188059E-004;2.098283730447292E-003;
2.403166666666667E+009;1.663235723972321E-001;2.558567561209202E-002;-2.450874308124185E-004;2.049174625426531E-003;
2.403333333333334E+009;1.674609184265137E-001;2.427425235509872E-002;-1.626110461074859E-004;2.006773836910725E-003;
2.403500000000000E+009;1.680839955806732E-001;2.302857674658299E-002;-1.243040605913848E-004;1.846088212914765E-003;
2.403666666666667E+009;1.689035892486572E-001;2.181713096797466E-002;-1.365306379739195E-004;1.684854039922357E-003;
2.403833333333334E+009;1.700369119644165E-001;2.070574648678303E-002;7.587843720102683E-005;1.736516598612070E-003;
2.404000000000000E+009;1.709186583757401E-001;1.957707293331623E-002;4.996081770514138E-005;1.595893525518477E-003;
2.404166666666667E+009;1.717992722988129E-001;1.876414380967617E-002;1.163599372375757E-004;1.507764798589051E-003;
2.404333333333334E+009;1.727731227874756E-001;1.770109124481678E-002;2.683581842575222E-004;1.638853573240340E-003;
2.404500000000000E+009;1.734426468610764E-001;1.693544909358025E-002;2.331236173631623E-004;1.438878476619721E-003;
2.404666666666667E+009;1.744664162397385E-001;1.633337326347828E-002;3.187958209309727E-004;1.335251261480153E-003;
2.404833333333334E+009;1.751667261123657E-001;1.577403768897057E-002;3.654416650533676E-004;1.047270721755922E-003;
2.405000000000000E+009;1.758940964937210E-001;1.508411578834057E-002;4.651952476706356E-004;1.151115051470697E-003;
2.405166666666667E+009;1.765782684087753E-001;1.446647103875876E-002;5.438852822408080E-004;1.138204825110734E-003;
2.405333333333334E+009;1.772428303956986E-001;1.387587282806635E-002;4.987469292245805E-004;9.374162764288485E-004;
2.405500000000000E+009;1.777781248092651E-001;1.364163868129253E-002;4.486767284106463E-004;8.696494041942060E-004;
2.405666666666667E+009;1.783065348863602E-001;1.319966465234757E-002;4.254000959917903E-004;6.437944830395281E-004;
2.405833333333334E+009;1.786061227321625E-001;1.300986111164093E-002;6.617240142077208E-004;6.540920003317297E-004;
2.406000000000000E+009;1.790310293436050E-001;1.240511983633041E-002;4.241347487550229E-004;6.006245384924114E-004;
2.406166666666667E+009;1.792731583118439E-001;1.237680763006210E-002;5.800577928312123E-004;5.592120578512549E-004;
2.406333333333334E+009;1.797810196876526E-001;1.217539887875319E-002;5.086405435577035E-004;4.162273835390806E-004;
2.406500000000000E+009;1.795545369386673E-001;1.174046006053686E-002;5.350720603018999E-004;2.101122954627499E-004;
2.406666666666667E+009;1.796335577964783E-001;1.153112296015024E-002;4.551245365291834E-004;9.994862921303138E-005;
2.406833333333334E+009;1.797179430723190E-001;1.103796437382698E-002;3.987555392086506E-004;1.037688998621889E-004;
2.407000000000000E+009;1.796458810567856E-001;1.069520320743322E-002;3.467144561000168E-004;7.000094046816230E-005;
2.407166666666667E+009;1.796837151050568E-001;1.039550732821226E-002;2.807002747431397E-004;-8.615523984190077E-005;
2.407333333333334E+009;1.792277991771698E-001;9.795456193387508E-003;2.134052774636075E-004;9.020568541018292E-005;
2.407500000000000E+009;1.788821369409561E-001;9.405821561813355E-003;2.601566957309842E-004;-1.545234699733555E-004;
2.407666666666667E+009;1.787077635526657E-001;8.776634931564331E-003;2.504879084881395E-004;-2.286585950059816E-004;
2.407833333333334E+009;1.780288666486740E-001;8.060526102781296E-003;7.210335024865344E-005;-7.415429718093947E-005;
2.408000000000000E+009;1.776626557111740E-001;7.286071777343750E-003;6.552501145051792E-005;-1.974130427697673E-004;
2.408166666666667E+009;1.770807355642319E-001;6.675165146589279E-003;-3.750314863282256E-005;-2.050176553893834E-004;
2.408333333333334E+009;1.767646968364716E-001;5.749271716922522E-003;6.456234586948995E-006;-3.930542734451592E-004;
2.408500000000000E+009;1.760717630386353E-001;4.710202571004629E-003;-2.050008042715490E-004;-1.585216959938407E-004;
2.408666666666667E+009;1.755723357200623E-001;3.811002708971500E-003;-3.383178845979273E-004;-3.980855981353670E-004;
2.408833333333334E+009;1.747443675994873E-001;2.600006759166718E-003;-2.383458486292511E-004;-4.676538228522986E-004;
2.409000000000000E+009;1.740370690822601E-001;1.412785029970110E-003;-4.040123603772372E-004;-3.800698323175311E-004;
2.409166666666667E+009;1.734735816717148E-001;1.562185934744775E-004;-3.957959124818444E-004;-3.156498714815825E-004;
2.409333333333334E+009;1.728536039590836E-001;-1.081320689991117E-003;-3.729119780473411E-004;-3.834257659036666E-004;
2.409500000000000E+009;1.723088473081589E-001;-2.839572727680206E-003;-4.212627245578915E-004;-3.566171799320728E-004;
2.409666666666667E+009;1.716167926788330E-001;-4.138166550546885E-003;-5.418598884716630E-004;-4.287007614038885E-004;
2.409833333333334E+009;1.708071827888489E-001;-5.678249523043633E-003;-6.519029266200960E-004;-2.738422481343150E-004;
2.410000000000000E+009;1.705444604158402E-001;-7.200390566140413E-003;-7.591341272927821E-004;-2.343784144613892E-004;
2.410166666666667E+009;1.699425429105759E-001;-9.082078002393246E-003;-7.505314424633980E-004;-3.168767143506557E-004;
2.410333333333334E+009;1.694568544626236E-001;-1.079851854592562E-002;-9.093793341889978E-004;-1.830640685511753E-004;
2.410500000000000E+009;1.691145747900009E-001;-1.246439479291439E-002;-8.495724177919328E-004;-2.479018585290760E-004;
2.410666666666667E+009;1.685237437486649E-001;-1.453674957156181E-002;-9.358095121569932E-004;-1.842088531702757E-004;
2.410833333333334E+009;1.684127748012543E-001;-1.638240553438664E-002;-1.071448903530836E-003;-2.037621306953952E-004;
2.411000000000000E+009;1.682416498661041E-001;-1.807662285864353E-002;-1.155714737251401E-003;-2.547810145188123E-004;
2.411166666666667E+009;1.680916547775269E-001;-2.000138536095619E-002;-1.212680013850331E-003;-5.490087642101571E-005;
2.411333333333334E+009;1.678389608860016E-001;-2.206008322536945E-002;-1.387540600262582E-003;-2.603163920866791E-005;
2.411500000000000E+009;1.680367887020111E-001;-2.412758767604828E-002;-1.307990285567939E-003;2.428469633741770E-005;
2.411666666666667E+009;1.679601818323135E-001;-2.600751072168350E-002;-1.378244021907449E-003;-1.457749021938071E-005;
2.411833333333334E+009;1.678994894027710E-001;-2.782487310469151E-002;-1.488851266913116E-003;1.224472944159061E-004;
2.412000000000000E+009;1.682732403278351E-001;-2.977351844310761E-002;-1.429360359907150E-003;2.875414502341300E-004;
2.412166666666667E+009;1.684774607419968E-001;-3.168217837810516E-002;-1.367377932183445E-003;4.919276107102633E-004;
2.412333333333334E+009;1.689136177301407E-001;-3.349662199616432E-002;-1.568271429277957E-003;5.714241415262222E-004;
2.412500000000000E+009;1.691340208053589E-001;-3.529701009392738E-002;-1.437718048691750E-003;6.926702917553484E-004;
2.412666666666667E+009;1.696458309888840E-001;-3.730401769280434E-002;-1.598073751665652E-003;4.992595058865845E-004;
2.412833333333334E+009;1.701472699642181E-001;-3.898356482386589E-002;-1.637114561162889E-003;7.305574836209416E-004;
2.413000000000000E+009;1.706788390874863E-001;-4.044610261917114E-002;-1.527362037450075E-003;8.636242710053921E-004;
2.413166666666667E+009;1.712344139814377E-001;-4.210877418518066E-002;-1.658505178056657E-003;9.998374152928591E-004;
2.413333333333334E+009;1.717046797275543E-001;-4.377506673336029E-002;-1.429122872650623E-003;9.654831374064088E-004;
2.413500000000000E+009;1.722042113542557E-001;-4.529769718647003E-002;-1.365297008305788E-003;1.090637873858213E-003;
2.413666666666667E+009;1.729947626590729E-001;-4.672279953956604E-002;-1.634131185710430E-003;1.284801168367267E-003;
2.413833333333334E+009;1.735261231660843E-001;-4.800963029265404E-002;-1.427546376362443E-003;1.339045935310423E-003;
2.414000000000000E+009;1.739469468593597E-001;-4.931398108601570E-002;-1.322213676758111E-003;1.451951102353633E-003;
2.414166666666667E+009;1.746954619884491E-001;-5.047063156962395E-002;-1.307111117057502E-003;1.520874910056591E-003;
2.414333333333334E+009;1.750912219285965E-001;-5.174995213747025E-002;-1.231614616699517E-003;1.707853516563773E-003;
2.414500000000000E+009;1.757621169090271E-001;-5.251552164554596E-002;-1.075474079698324E-003;1.563691766932607E-003;
2.414666666666667E+009;1.762862950563431E-001;-5.333909764885902E-002;-1.068713958375156E-003;2.021223073825240E-003;
2.414833333333334E+009;1.766773462295532E-001;-5.436200276017189E-002;-7.963397656567395E-004;1.657513203099370E-003;
2.415000000000000E+009;1.771283000707626E-001;-5.499784275889397E-002;-8.454345515929163E-004;1.736656762659550E-003;
2.415166666666667E+009;1.774151623249054E-001;-5.568200349807739E-002;-6.897266721352935E-004;1.834307797253132E-003;
2.415333333333334E+009;1.778837889432907E-001;-5.629846081137657E-002;-5.726205999962986E-004;1.931578735820949E-003;
2.415500000000000E+009;1.781345158815384E-001;-5.684315785765648E-002;-3.887861967086792E-004;1.886261976324022E-003;
2.415666666666667E+009;1.781467050313950E-001;-5.746462941169739E-002;-2.958489058073610E-004;1.868538558483124E-003;
2.415833333333334E+009;1.783823072910309E-001;-5.770980194211006E-002;-2.745556994341314E-004;1.765186898410320E-003;
2.416000000000000E+009;1.781819760799408E-001;-5.810416117310524E-002;-2.133882226189598E-004;1.882674056105316E-003;
2.416166666666667E+009;1.783712953329086E-001;-5.837099999189377E-002;-1.924596290336922E-005;1.807016902603209E-003;
2.416333333333334E+009;1.781315654516220E-001;-5.854442343115807E-002;-1.285722682951018E-004;1.838948926888406E-003;
2.416500000000000E+009;1.779687255620956E-001;-5.893732607364655E-002;6.073402255424298E-005;1.873640925623477E-003;
2.416666666666667E+009;1.775294989347458E-001;-5.915451422333717E-002;-4.074646494700573E-005;1.766980625689030E-003;
2.416833333333334E+009;1.772963255643845E-001;-5.952363461256027E-002;4.403565253596753E-005;1.725168083794415E-003;
2.417000000000000E+009;1.765590161085129E-001;-5.972154438495636E-002;1.284246536670253E-004;1.712574623525143E-003;
2.417166666666667E+009;1.759455651044846E-001;-5.983668938279152E-002;1.562819088576362E-004;1.662522787228227E-003;
2.417333333333334E+009;1.752630621194840E-001;-6.006048619747162E-002;1.159427702077664E-004;1.714135403744876E-003;
2.417500000000000E+009;1.745164394378662E-001;-6.053187325596809E-002;1.793577393982559E-004;1.541923847980797E-003;
2.417666666666667E+009;1.737887412309647E-001;-6.074315309524536E-002;2.771923027466983E-004;1.557218376547098E-003;
2.417833333333334E+009;1.729454994201660E-001;-6.109645590186119E-002;4.028707626275718E-004;1.471028779633343E-003;
2.418000000000000E+009;1.718112081289291E-001;-6.148150935769081E-002;3.625672252383083E-004;1.560698379762471E-003;
2.418166666666667E+009;1.706507354974747E-001;-6.175222992897034E-002;3.742297412827611E-004;1.442027860321105E-003;
2.418333333333334E+009;1.700179576873779E-001;-6.233272701501846E-002;3.236990014556795E-004;1.256145536899567E-003;
2.418500000000000E+009;1.685988754034042E-001;-6.292244046926498E-002;4.095984040759504E-004;1.562095596455038E-003;
2.418666666666667E+009;1.674715727567673E-001;-6.347390264272690E-002;2.435606729704887E-004;1.564983977004886E-003;
2.418833333333334E+009;1.663369983434677E-001;-6.405096501111984E-002;4.339026636444032E-004;1.410633325576782E-003;
2.419000000000000E+009;1.650110781192780E-001;-6.492542475461960E-002;4.953007446601987E-004;1.459612394683063E-003;
2.419166666666667E+009;1.638362705707550E-001;-6.578955799341202E-002;4.368137742858380E-004;1.397418673150241E-003;
2.419333333333334E+009;1.625645011663437E-001;-6.638727337121964E-002;4.778908914886415E-004;1.505794469267130E-003;
2.419500000000000E+009;1.613986194133759E-001;-6.753998249769211E-002;3.405388270039111E-004;1.325579942204058E-003;
2.419666666666667E+009;1.602047085762024E-001;-6.849301606416702E-002;4.439444746822119E-004;1.330295344814658E-003;
2.419833333333334E+009;1.589970141649246E-001;-6.955616176128388E-002;3.315318026579917E-004;1.284334692172706E-003;
2.420000000000000E+009;1.579389274120331E-001;-7.086376100778580E-002;6.678208592347801E-004;1.172821037471294E-003;
2.420166666666667E+009;1.568102091550827E-001;-7.196058332920075E-002;5.130011704750359E-004;1.194291398860514E-003;
2.420333333333334E+009;1.559174656867981E-001;-7.334599643945694E-002;4.335655539762229E-004;1.337465713731945E-003;
2.420500000000000E+009;1.550127565860748E-001;-7.459355890750885E-002;5.715544102713466E-004;1.429411699064076E-003;
2.420666666666667E+009;1.540042757987976E-001;-7.609909772872925E-002;4.905588575638831E-004;1.382609247229993E-003;
2.420833333333334E+009;1.532368808984757E-001;-7.753863185644150E-002;4.915404715575278E-004;1.319352653808892E-003;
2.421000000000000E+009;1.523851901292801E-001;-7.908619195222855E-002;4.771541571244597E-004;1.197963254526258E-003;
2.421166666666667E+009;1.517841517925263E-001;-8.069362491369247E-002;5.111553473398089E-004;1.106543466448784E-003;
2.421333333333334E+009;1.512545347213745E-001;-8.231992274522781E-002;4.632192139979452E-004;1.228181412443519E-003;
2.421500000000000E+009;1.506365835666657E-001;-8.376000076532364E-002;5.725240334868431E-004;1.260189921595156E-003;
2.421666666666667E+009;1.500904858112335E-001;-8.564457297325134E-002;5.559384590014815E-004;1.287630526348949E-003;
2.421833333333334E+009;1.499893516302109E-001;-8.712458610534668E-002;5.624194745905697E-004;1.231491216458380E-003;
2.422000000000000E+009;1.495881080627441E-001;-8.883495628833771E-002;6.668558926321566E-004;1.181761967018247E-003;
2.422166666666667E+009;1.494219452142716E-001;-9.060624241828919E-002;6.604601512663066E-004;1.156080630607903E-003;
2.422333333333334E+009;1.492027938365936E-001;-9.229200333356857E-002;6.589459953829646E-004;1.220843521878123E-003;
2.422500000000000E+009;1.492430716753006E-001;-9.388515353202820E-002;7.253802032209933E-004;1.264729537069798E-003;
2.422666666666667E+009;1.494232267141342E-001;-9.556155651807785E-002;7.366669015027583E-004;1.234455266967416E-003;
2.422833333333334E+009;1.496140956878662E-001;-9.726269543170929E-002;6.332727498374879E-004;1.306917634792626E-003;
2.423000000000000E+009;1.495916694402695E-001;-9.872595965862274E-002;8.444016566500068E-004;1.350376172922552E-003;
2.423166666666667E+009;1.502189785242081E-001;-1.003957241773605E-001;7.173985941335559E-004;1.256707473658025E-003;
2.423333333333334E+009;1.505517512559891E-001;-1.016570329666138E-001;9.158752509392798E-004;1.306635094806552E-003;
2.423500000000000E+009;1.507819592952728E-001;-1.031062006950378E-001;9.085726342163980E-004;1.402919879183173E-003;
2.423666666666667E+009;1.509595960378647E-001;-1.046948283910751E-001;9.699244983494282E-004;1.532682217657566E-003;
2.423833333333334E+009;1.516413390636444E-001;-1.060199737548828E-001;9.970755781978369E-004;1.365367323160172E-003;
2.424000000000000E+009;1.521445959806442E-001;-1.071388050913811E-001;1.221082871779800E-003;1.316330395638943E-003;
2.424166666666667E+009;1.523809731006622E-001;-1.082844510674477E-001;1.080723945051432E-003;1.163322478532791E-003;
2.424333333333334E+009;1.528380364179611E-001;-1.093021631240845E-001;1.214472344145179E-003;1.152620534412563E-003;
2.424500000000000E+009;1.534187644720078E-001;-1.103896349668503E-001;1.128289150074124E-003;1.160400919616222E-003;
2.424666666666667E+009;1.541457325220108E-001;-1.112242788076401E-001;1.242119702510536E-003;1.066308002918959E-003;
2.424833333333334E+009;1.544965952634811E-001;-1.121296957135201E-001;1.245612744241953E-003;1.043914700858295E-003;
2.425000000000000E+009;1.548517346382141E-001;-1.129651069641113E-001;1.213215407915413E-003;1.020014635287225E-003;
2.425166666666667E+009;1.551772207021713E-001;-1.136535853147507E-001;1.422068686224520E-003;1.060217386111617E-003;
2.425333333333334E+009;1.555530577898026E-001;-1.142470836639404E-001;1.234499970450997E-003;1.118892570957542E-003;
2.425500000000000E+009;1.559747904539108E-001;-1.149534434080124E-001;1.225883257575333E-003;9.103352203965187E-004;
2.425666666666667E+009;1.560638397932053E-001;-1.153976619243622E-001;1.299496274441481E-003;9.553055861033499E-004;
2.425833333333334E+009;1.562242358922958E-001;-1.158911287784576E-001;1.375974738039076E-003;8.923429995775223E-004;
2.426000000000000E+009;1.563347429037094E-001;-1.163554564118385E-001;1.409789547324181E-003;1.007454353384674E-003;
2.426166666666667E+009;1.566502302885056E-001;-1.167031228542328E-001;1.350361853837967E-003;1.007590675726533E-003;
2.426333333333334E+009;1.564947664737701E-001;-1.168734580278397E-001;1.387211843393743E-003;8.776147733442485E-004;
2.426500000000000E+009;1.563956588506699E-001;-1.169518157839775E-001;1.426804927177727E-003;7.711185608059168E-004;
2.426666666666667E+009;1.563404500484467E-001;-1.171236112713814E-001;1.371864811517298E-003;7.885704399086535E-004;
2.426833333333334E+009;1.559780091047287E-001;-1.175052374601364E-001;1.509429072029889E-003;7.811636896803975E-004;
2.427000000000000E+009;1.555431187152863E-001;-1.176333501935005E-001;1.485638204030693E-003;8.112611249089241E-004;
2.427166666666667E+009;1.551168709993362E-001;-1.176777034997940E-001;1.410360913723707E-003;7.547022541984916E-004;
2.427333333333334E+009;1.544670611619949E-001;-1.177411973476410E-001;1.538457348942757E-003;7.665571756660938E-004;
2.427500000000000E+009;1.539105176925659E-001;-1.178928166627884E-001;1.444213325157762E-003;7.432884885929525E-004;
2.427666666666667E+009;1.530728638172150E-001;-1.180423125624657E-001;1.406834227964282E-003;8.718363824300468E-004;
2.427833333333334E+009;1.521185189485550E-001;-1.182613074779511E-001;1.522578648291528E-003;8.178228163160384E-004;
