# Version 1.00
#
freq[Hz];re:Trc1_S11;im:Trc1_S11;re:Trc2_S21;im:Trc2_S21;
2.400000000000000E+009;1.573232710361481E-001;6.090774014592171E-002;-2.946684136986733E-003;1.299283467233181E-003;
2.400166666666667E+009;1.572269797325134E-001;5.917190760374069E-002;-2.845073584467173E-003;1.404229900799692E-003;
2.400333333333334E+009;1.573252230882645E-001;5.716240033507347E-002;-3.032719250768423E-003;1.624926459044218E-003;
2.400500000000000E+009;1.574912071228027E-001;5.523729696869850E-002;-2.713955240324140E-003;1.662092632614076E-003;
2.400666666666667E+009;1.575267612934113E-001;5.315879732370377E-002;-2.658112207427621E-003;1.762862550094724E-003;
2.400833333333334E+009;1.580788195133209E-001;5.131609365344048E-002;-2.555809216573834E-003;1.935321837663651E-003;
2.401000000000000E+009;1.582284718751907E-001;4.900755360722542E-002;-2.377077704295516E-003;2.032462041825056E-003;
2.401166666666667E+009;1.585918962955475E-001;4.709878936409950E-002;-2.305850153788924E-003;2.101356862112880E-003;
2.401333333333334E+009;1.589052230119705E-001;4.474143311381340E-002;-2.122360980138183E-003;2.256978768855333E-003;
2.401500000000000E+009;1.593948900699616E-001;4.284295439720154E-002;-1.769293565303087E-003;2.234910847619176E-003;
2.401666666666667E+009;1.600147634744644E-001;4.107568040490151E-002;-1.839566044509411E-003;2.251621801406145E-003;
2.401833333333334E+009;1.603455692529678E-001;3.895821422338486E-002;-1.676156301982701E-003;2.322634449228644E-003;
2.402000000000000E+009;1.607486754655838E-001;3.703752160072327E-002;-1.477955724112690E-003;2.201563445851207E-003;
2.402166666666667E+009;1.616318821907044E-001;3.506982326507568E-002;-1.419155858457089E-003;2.351836301386356E-003;
2.402333333333334E+009;1.621181219816208E-001;3.333549574017525E-002;-1.140414038673043E-003;2.235824242234230E-003;
2.402500000000000E+009;1.630864590406418E-001;3.174794465303421E-002;-9.249153663404286E-004;2.260370412841439E-003;
2.402666666666667E+009;1.637805998325348E-001;3.022797033190727E-002;-8.702066261321306E-004;2.309791045263410E-003;
2.402833333333334E+009;1.645400077104569E-001;2.845771610736847E-002;-7.487286929972470E-004;2.207663608714938E-003;
2.403000000000000E+009;1.654778718948364E-001;2.704728208482266E-002;-6.181683274917305E-004;2.060862956568599E-003;
2.403166666666667E+009;1.661976426839829E-001;2.561413496732712E-002;-5.492785130627453E-004;2.259192988276482E-003;
2.403333333333334E+009;1.673320829868317E-001;2.419532835483551E-002;-2.470239996910095E-004;1.962496666237712E-003;
2.403500000000000E+009;1.681215912103653E-001;2.303427457809448E-002;-3.234907344449312E-004;1.830917550250888E-003;
2.403666666666667E+009;1.691256612539291E-001;2.169196493923664E-002;-1.932697632582858E-004;1.965050352737308E-003;
2.403833333333334E+009;1.702114939689636E-001;2.072613127529621E-002;9.139957910520025E-006;1.821877900511026E-003;
2.404000000000000E+009;1.709670275449753E-001;1.967241615056992E-002;9.830792259890586E-005;1.684025744907558E-003;
2.404166666666667E+009;1.718030124902725E-001;1.860890910029411E-002;-1.415547899341618E-006;1.597296912223101E-003;
2.404333333333334E+009;1.725676506757736E-001;1.792062819004059E-002;1.656418608035892E-004;1.692361314781010E-003;
2.404500000000000E+009;1.735278666019440E-001;1.695992238819599E-002;1.306691119680181E-004;1.499869162216783E-003;
2.404666666666667E+009;1.744579076766968E-001;1.630480028688908E-002;1.350340899080038E-004;1.434755627997220E-003;
2.404833333333334E+009;1.752227395772934E-001;1.562956720590591E-002;3.545406507328153E-004;1.494412776082754E-003;
2.405000000000000E+009;1.759636253118515E-001;1.504966057837009E-002;3.230089496355504E-004;1.381061272695661E-003;
2.405166666666667E+009;1.766882687807083E-001;1.452277041971684E-002;3.859284915961325E-004;1.171837095171213E-003;
2.405333333333334E+009;1.774458140134811E-001;1.399083901196718E-002;4.487324913498014E-004;1.121633918955922E-003;
2.405500000000000E+009;1.777883470058441E-001;1.363376528024674E-002;5.198179278522730E-004;1.139311818405986E-003;
2.405666666666667E+009;1.784262508153915E-001;1.332360040396452E-002;4.535848856903613E-004;8.808000129647553E-004;
2.405833333333334E+009;1.787920445203781E-001;1.307368185371161E-002;4.597029474098235E-004;6.948007503524423E-004;
2.406000000000000E+009;1.792419850826263E-001;1.255704835057259E-002;5.048406892456114E-004;8.846850250847638E-004;
2.406166666666667E+009;1.793532371520996E-001;1.245879661291838E-002;4.535984771791846E-004;7.963254465721548E-004;
2.406333333333334E+009;1.797444671392441E-001;1.204763725399971E-002;4.954134346917272E-004;5.879039526917040E-004;
2.406500000000000E+009;1.799099594354630E-001;1.162520889192820E-002;5.854396731592715E-004;3.763565910048783E-004;
2.406666666666667E+009;1.797972619533539E-001;1.147063449025154E-002;5.174322868697345E-004;4.569830780383200E-004;
2.406833333333334E+009;1.797142922878265E-001;1.093141920864582E-002;5.392679013311863E-004;2.455860085319728E-004;
2.407000000000000E+009;1.799007207155228E-001;1.058338116854429E-002;5.105025484226644E-004;2.375338226556778E-004;
2.407166666666667E+009;1.798574477434158E-001;1.029310654848814E-002;4.009856784250587E-004;2.062892745016143E-004;
2.407333333333334E+009;1.795009225606918E-001;9.608237072825432E-003;3.424730384722352E-004;2.341196341149043E-005;
2.407500000000000E+009;1.791462153196335E-001;9.188022464513779E-003;2.615547855384648E-004;-1.220519698108546E-005;
2.407666666666667E+009;1.788666993379593E-001;8.735563606023789E-003;2.945512242149562E-004;-1.040628267219290E-004;
2.407833333333334E+009;1.782318353652954E-001;7.956882938742638E-003;1.617169618839398E-004;-8.864315168466419E-005;
2.408000000000000E+009;1.778094321489334E-001;7.185962982475758E-003;1.531636080471799E-004;-2.071515045827255E-004;
2.408166666666667E+009;1.772727221250534E-001;6.524682044982910E-003;5.590257205767557E-005;-1.575286878505722E-004;
2.408333333333334E+009;1.769379824399948E-001;5.660667549818754E-003;-1.226076801685849E-005;-2.418218064121902E-004;
2.408500000000000E+009;1.761220693588257E-001;4.634892567992210E-003;-1.551609893795103E-004;-2.475159708410502E-004;
2.408666666666667E+009;1.754893362522125E-001;3.668932709842920E-003;-1.335100387223065E-004;-3.632413281593472E-004;
2.408833333333334E+009;1.749273687601090E-001;2.559156622737646E-003;-2.383256360189989E-004;-2.099120465572923E-004;
2.409000000000000E+009;1.740502119064331E-001;1.470646122470498E-003;-1.941881928360090E-004;-2.013377525145188E-004;
2.409166666666667E+009;1.735270023345947E-001;1.573360896145459E-005;-3.485856286715716E-004;-3.611449792515487E-004;
2.409333333333334E+009;1.729470342397690E-001;-1.263287151232362E-003;-2.791873703245074E-004;-3.604156372603029E-004;
2.409500000000000E+009;1.721261441707611E-001;-3.065423574298620E-003;-4.156783397775143E-004;-3.145127848256379E-004;
2.409666666666667E+009;1.717356592416763E-001;-4.162257537245750E-003;-5.197297432459891E-004;-3.149007970932871E-004;
2.409833333333334E+009;1.710112541913986E-001;-5.834502167999744E-003;-5.164589965716004E-004;-2.856968203559518E-004;
2.410000000000000E+009;1.705538779497147E-001;-7.482083514332771E-003;-5.309936823323369E-004;-3.262532700318843E-004;
2.410166666666667E+009;1.700464040040970E-001;-9.045689366757870E-003;-7.884731166996062E-004;-1.558726507937536E-004;
2.410333333333334E+009;1.693650484085083E-001;-1.092201285064220E-002;-8.201489108614624E-004;-3.048822400160134E-004;
2.410500000000000E+009;1.691026687622070E-001;-1.267778873443604E-002;-8.099350961856544E-004;-1.785782660590485E-004;
2.410666666666667E+009;1.687106341123581E-001;-1.461551059037447E-002;-7.849225657992065E-004;-1.146235590567812E-004;
2.410833333333334E+009;1.685654371976852E-001;-1.642489619553089E-002;-7.837517186999321E-004;-1.529645232949406E-004;
2.411000000000000E+009;1.680569946765900E-001;-1.831554435193539E-002;-1.010472187772393E-003;-1.923405652632937E-004;
2.411166666666667E+009;1.679947674274445E-001;-2.022274583578110E-002;-1.089831115677953E-003;-1.778903242666274E-004;
2.411333333333334E+009;1.678847074508667E-001;-2.209397591650486E-002;-1.058150664903224E-003;-2.153671084670350E-004;
2.411500000000000E+009;1.679202914237976E-001;-2.409241721034050E-002;-1.267950632609427E-003;-2.616864776427974E-006;
2.411666666666667E+009;1.679245233535767E-001;-2.604854665696621E-002;-1.263384358026087E-003;7.219470717245713E-005;
2.411833333333334E+009;1.681376993656158E-001;-2.810594253242016E-002;-1.338532078079879E-003;1.084967516362667E-004;
2.412000000000000E+009;1.683350056409836E-001;-2.984705381095409E-002;-1.363985822536051E-003;2.452023909427226E-004;
2.412166666666667E+009;1.684163212776184E-001;-3.174633532762528E-002;-1.300102449022234E-003;3.877828712575138E-004;
2.412333333333334E+009;1.690655499696732E-001;-3.344390541315079E-002;-1.578896655701101E-003;4.176286165602505E-004;
2.412500000000000E+009;1.692483425140381E-001;-3.525841236114502E-002;-1.381231471896172E-003;5.148744676262140E-004;
2.412666666666667E+009;1.696795970201492E-001;-3.728273883461952E-002;-1.526485080830753E-003;6.595907616429031E-004;
2.412833333333334E+009;1.701200604438782E-001;-3.893192484974861E-002;-1.504462328739464E-003;5.757447797805071E-004;
2.413000000000000E+009;1.706386655569077E-001;-4.064464569091797E-002;-1.387769007124007E-003;8.301256457343698E-004;
2.413166666666667E+009;1.711601763963699E-001;-4.215788468718529E-002;-1.644559553824365E-003;7.810397655703127E-004;
2.413333333333334E+009;1.717474162578583E-001;-4.384949058294296E-002;-1.406175084412098E-003;9.794103680178523E-004;
2.413500000000000E+009;1.723492294549942E-001;-4.542819410562515E-002;-1.348402700386941E-003;1.165842637419701E-003;
2.413666666666667E+009;1.730996370315552E-001;-4.685212299227715E-002;-1.278942567296326E-003;1.078758970834315E-003;
2.413833333333334E+009;1.735339760780335E-001;-4.797054827213287E-002;-1.449994975700975E-003;1.224697218276560E-003;
2.414000000000000E+009;1.740144789218903E-001;-4.924593865871429E-002;-1.187621965073049E-003;1.438734936527908E-003;
2.414166666666667E+009;1.747392714023590E-001;-5.060670524835587E-002;-1.212211558595300E-003;1.436884631402791E-003;
2.414333333333334E+009;1.751463264226914E-001;-5.171624943614006E-002;-1.219435711391270E-003;1.478747697547078E-003;
2.414500000000000E+009;1.759307831525803E-001;-5.266261473298073E-002;-8.487193845212460E-004;1.467281952500343E-003;
2.414666666666667E+009;1.762876212596893E-001;-5.357329174876213E-002;-9.087764192372561E-004;1.558782416395843E-003;
2.414833333333334E+009;1.768400669097900E-001;-5.446731671690941E-002;-8.616281556896865E-004;1.618122681975365E-003;
2.415000000000000E+009;1.769602894783020E-001;-5.506115779280663E-002;-6.893150857649744E-004;1.766584697179496E-003;
2.415166666666667E+009;1.773694157600403E-001;-5.588819459080696E-002;-7.360264426097274E-004;1.823610626161099E-003;
2.415333333333334E+009;1.778582185506821E-001;-5.645116418600082E-002;-5.402477108873427E-004;1.805908395908773E-003;
2.415500000000000E+009;1.781849265098572E-001;-5.689787864685059E-002;-5.431937170214951E-004;1.734472811222076E-003;
2.415666666666667E+009;1.781732738018036E-001;-5.732677131891251E-002;-4.387667286209762E-004;1.844315673224628E-003;
2.415833333333334E+009;1.783397197723389E-001;-5.782148241996765E-002;-3.483427863102406E-004;1.675667008385062E-003;
2.416000000000000E+009;1.781418174505234E-001;-5.821070447564125E-002;-3.573535359464586E-004;1.658425317145884E-003;
2.416166666666667E+009;1.782620996236801E-001;-5.850013718008995E-002;-3.506634675431997E-004;1.718866638839245E-003;
2.416333333333334E+009;1.780937761068344E-001;-5.867153778672218E-002;-4.962705133948475E-005;1.825636485591531E-003;
2.416500000000000E+009;1.778430342674255E-001;-5.915006250143051E-002;-7.979682413861156E-005;1.748877926729620E-003;
2.416666666666667E+009;1.776594370603561E-001;-5.927074700593948E-002;-2.745712481555529E-005;1.704738591797650E-003;
2.416833333333334E+009;1.772872954607010E-001;-5.955899879336357E-002;6.733942427672446E-005;1.579115400090814E-003;
2.417000000000000E+009;1.764516532421112E-001;-5.984222888946533E-002;-5.329371788320714E-007;1.569103682413697E-003;
2.417166666666667E+009;1.759704649448395E-001;-5.985222756862640E-002;1.072603845386766E-005;1.603414420969784E-003;
2.417333333333334E+009;1.752255707979202E-001;-6.010617688298225E-002;1.422131608705968E-004;1.573039800859988E-003;
2.417500000000000E+009;1.745704859495163E-001;-6.051921099424362E-002;2.348579000681639E-004;1.611372921615839E-003;
2.417666666666667E+009;1.736847609281540E-001;-6.078851968050003E-002;2.394626499153674E-004;1.457289326936007E-003;
2.417833333333334E+009;1.729127466678619E-001;-6.103538349270821E-002;2.875128411687911E-004;1.433434779755771E-003;
2.418000000000000E+009;1.717634052038193E-001;-6.148364394903183E-002;3.137738676741719E-004;1.354730338789523E-003;
2.418166666666667E+009;1.707545369863510E-001;-6.188296899199486E-002;2.906334702856839E-004;1.405555522069335E-003;
2.418333333333334E+009;1.699759960174561E-001;-6.243686378002167E-002;2.509999321773648E-004;1.426256494596601E-003;
2.418500000000000E+009;1.686243861913681E-001;-6.283476203680039E-002;3.886076447088271E-004;1.412106794305146E-003;
2.418666666666667E+009;1.675251424312592E-001;-6.339406967163086E-002;4.455763846635819E-004;1.568564213812351E-003;
2.418833333333334E+009;1.662652790546417E-001;-6.418734043836594E-002;4.565466661006212E-004;1.310490188188851E-003;
2.419000000000000E+009;1.649979948997498E-001;-6.489642709493637E-002;2.776517358142883E-004;1.313472399488092E-003;
2.419166666666667E+009;1.639184355735779E-001;-6.563405692577362E-002;3.531515831127763E-004;1.299343188293278E-003;
2.419333333333334E+009;1.623903214931488E-001;-6.644909083843231E-002;4.609864845406264E-004;1.333115156739950E-003;
2.419500000000000E+009;1.613631546497345E-001;-6.762421876192093E-002;2.653351111803204E-004;1.358264707960188E-003;
2.419666666666667E+009;1.602235138416290E-001;-6.857413053512573E-002;5.004412378184497E-004;1.329126767814159E-003;
2.419833333333334E+009;1.590687185525894E-001;-6.968536227941513E-002;4.402073391247541E-004;1.269226428121328E-003;
2.420000000000000E+009;1.579680740833283E-001;-7.064191251993179E-002;4.814250278286636E-004;1.348524820059538E-003;
2.420166666666667E+009;1.569188088178635E-001;-7.194981724023819E-002;6.021565641276538E-004;1.263547455891967E-003;
2.420333333333334E+009;1.558578908443451E-001;-7.334432750940323E-002;4.562412213999778E-004;1.280633034184575E-003;
2.420500000000000E+009;1.549054831266403E-001;-7.455812394618988E-002;5.337142501957715E-004;1.363437622785568E-003;
2.420666666666667E+009;1.539931893348694E-001;-7.583066821098328E-002;4.822324262931943E-004;1.234918017871678E-003;
2.420833333333334E+009;1.531568318605423E-001;-7.752379029989243E-002;6.844299496151507E-004;1.225703046657145E-003;
2.421000000000000E+009;1.524942070245743E-001;-7.902354747056961E-002;5.228466470725834E-004;1.345528056845069E-003;
2.421166666666667E+009;1.517196893692017E-001;-8.057411015033722E-002;5.367320263758302E-004;1.274473033845425E-003;
2.421333333333334E+009;1.512758731842041E-001;-8.228296786546707E-002;4.752234381157905E-004;1.278357929550111E-003;
2.421500000000000E+009;1.507039219141007E-001;-8.389843255281448E-002;4.970164736732841E-004;1.322844065725803E-003;
2.421666666666667E+009;1.503266841173172E-001;-8.558346331119537E-002;6.603823276236653E-004;1.422775560058653E-003;
2.421833333333334E+009;1.500242054462433E-001;-8.715098351240158E-002;5.384848918765783E-004;1.286376151256263E-003;
2.422000000000000E+009;1.498075276613236E-001;-8.890121430158615E-002;6.356117082759738E-004;1.314379042014480E-003;
2.422166666666667E+009;1.494834870100021E-001;-9.071262925863266E-002;5.850670277141035E-004;1.291644875891507E-003;
2.422333333333334E+009;1.495587229728699E-001;-9.218785911798477E-002;7.022607605904341E-004;1.439012354239821E-003;
2.422500000000000E+009;1.494661420583725E-001;-9.382679313421249E-002;6.473899120464921E-004;1.327274716459215E-003;
2.422666666666667E+009;1.493921279907227E-001;-9.553737193346024E-002;6.556730368174613E-004;1.311125699430704E-003;
2.422833333333334E+009;1.496770232915878E-001;-9.724466502666473E-002;8.503056596964598E-004;1.323914388194680E-003;
2.423000000000000E+009;1.497856229543686E-001;-9.877717494964600E-002;7.694468367844820E-004;1.341597991995513E-003;
2.423166666666667E+009;1.503025293350220E-001;-1.004502922296524E-001;7.479204796254635E-004;1.424764865078032E-003;
2.423333333333334E+009;1.505523175001144E-001;-1.017013043165207E-001;7.972109015099704E-004;1.151244156062603E-003;
2.423500000000000E+009;1.508208662271500E-001;-1.032683029770851E-001;9.511365205980837E-004;1.364062540233135E-003;
2.423666666666667E+009;1.510772705078125E-001;-1.047647073864937E-001;1.012600259855390E-003;1.349582802504301E-003;
2.423833333333334E+009;1.516916900873184E-001;-1.060443222522736E-001;8.860136731527746E-004;1.299858791753650E-003;
2.424000000000000E+009;1.520971357822418E-001;-1.071974635124207E-001;9.253590833395720E-004;1.315623638220131E-003;
2.424166666666667E+009;1.524793952703476E-001;-1.083937957882881E-001;1.054510939866304E-003;1.320949406363070E-003;
2.424333333333334E+009;1.531213521957398E-001;-1.094714328646660E-001;1.172866672277451E-003;1.309309038333595E-003;
2.424500000000000E+009;1.536044776439667E-001;-1.104572713375092E-001;1.059968490153551E-003;1.326294033788145E-003;
2.424666666666667E+009;1.541523635387421E-001;-1.113362759351730E-001;1.167894224636257E-003;1.181734376586974E-003;
2.424833333333334E+009;1.544494777917862E-001;-1.123272404074669E-001;1.259640324860811E-003;1.133174519054592E-003;
2.425000000000000E+009;1.549222767353058E-001;-1.130601391196251E-001;1.130046555772424E-003;1.148256706073880E-003;
2.425166666666667E+009;1.551576256752014E-001;-1.137552261352539E-001;1.254865434020758E-003;1.181308762170374E-003;
2.425333333333334E+009;1.556158214807510E-001;-1.143926307559013E-001;1.146999304182828E-003;1.095089362934232E-003;
2.425500000000000E+009;1.559361517429352E-001;-1.151174008846283E-001;1.313996850512922E-003;1.216891803778708E-003;
2.425666666666667E+009;1.560681909322739E-001;-1.156034097075462E-001;1.352800289168954E-003;9.344674181193113E-004;
2.425833333333334E+009;1.562723070383072E-001;-1.159138828516007E-001;1.388942124322057E-003;1.046346849761903E-003;
2.426000000000000E+009;1.564157903194428E-001;-1.164076030254364E-001;1.270818407647312E-003;9.665818070061505E-004;
2.426166666666667E+009;1.565919965505600E-001;-1.167138516902924E-001;1.371237216517329E-003;9.030494256876409E-004;
2.426333333333334E+009;1.565030664205551E-001;-1.169814839959145E-001;1.367470249533653E-003;1.018632552586496E-003;
2.426500000000000E+009;1.565339863300324E-001;-1.170805394649506E-001;1.419852604158223E-003;8.959835977293551E-004;
2.426666666666667E+009;1.563738584518433E-001;-1.172149702906609E-001;1.349085476249456E-003;8.327732211910188E-004;
2.426833333333334E+009;1.559558957815170E-001;-1.175207570195198E-001;1.442974782548845E-003;8.643095497973263E-004;
2.427000000000000E+009;1.555025577545166E-001;-1.176472157239914E-001;1.308225328102708E-003;8.212857646867633E-004;
2.427166666666667E+009;1.550677865743637E-001;-1.176682263612747E-001;1.541543053463101E-003;7.683769799768925E-004;
2.427333333333334E+009;1.544779092073441E-001;-1.178242862224579E-001;1.470671501010656E-003;7.944277604110539E-004;
2.427500000000000E+009;1.539519578218460E-001;-1.179363504052162E-001;1.468124333769083E-003;9.771389886736870E-004;
2.427666666666667E+009;1.531068086624146E-001;-1.181205287575722E-001;1.537553616799414E-003;8.653913391754031E-004;
2.427833333333334E+009;1.521664410829544E-001;-1.182385757565498E-001;1.566087361425161E-003;8.384636021219194E-004;
