# Version 1.00
#
freq[Hz];re:Trc1_S11;im:Trc1_S11;re:Trc2_S21;im:Trc2_S21;
2.400000000000000E+009;1.572271734476090E-001;6.070924550294876E-002;-2.889760537073016E-003;1.341755618341267E-003;
2.400166666666667E+009;1.572955697774887E-001;5.911733955144882E-002;-2.763409633189440E-003;1.453617820516229E-003;
2.400333333333334E+009;1.573042720556259E-001;5.705491453409195E-002;-2.728499937802553E-003;1.554511254653335E-003;
2.400500000000000E+009;1.576013416051865E-001;5.508439987897873E-002;-2.587008988484740E-003;1.747374306432903E-003;
2.400666666666667E+009;1.575165688991547E-001;5.315379425883293E-002;-2.434109803289175E-003;1.825925428420305E-003;
2.400833333333334E+009;1.579247266054153E-001;5.109649151563644E-002;-2.415539696812630E-003;1.952958293259144E-003;
2.401000000000000E+009;1.581572890281677E-001;4.898192360997200E-002;-2.410910092294216E-003;2.050303155556321E-003;
2.401166666666667E+009;1.585123240947723E-001;4.677012190222740E-002;-2.153113950043917E-003;2.125226892530918E-003;
2.401333333333334E+009;1.588743329048157E-001;4.481022432446480E-002;-1.830598572269082E-003;2.045814413577318E-003;
2.401500000000000E+009;1.594723165035248E-001;4.282677546143532E-002;-1.643713098019362E-003;2.275109291076660E-003;
2.401666666666667E+009;1.599355936050415E-001;4.088071361184120E-002;-1.670658471994102E-003;2.311451127752662E-003;
2.401833333333334E+009;1.603329181671143E-001;3.883722051978111E-002;-1.622047624550760E-003;2.264497801661491E-003;
2.402000000000000E+009;1.608609110116959E-001;3.709921613335609E-002;-1.161023159511387E-003;2.109688706696034E-003;
2.402166666666667E+009;1.615757942199707E-001;3.491209074854851E-002;-1.270468579605222E-003;2.272438956424594E-003;
2.402333333333334E+009;1.621603667736054E-001;3.324334323406220E-002;-9.794981451705098E-004;2.274247817695141E-003;
2.402500000000000E+009;1.630843728780747E-001;3.162558004260063E-002;-8.993405499495566E-004;2.225774340331554E-003;
2.402666666666667E+009;1.637584716081619E-001;3.018518537282944E-002;-9.277008357457817E-004;2.356491982936859E-003;
2.402833333333334E+009;1.644952893257141E-001;2.866584621369839E-002;-8.198412833735347E-004;2.135952003300190E-003;
2.403000000000000E+009;1.655264049768448E-001;2.689561434090138E-002;-4.889310221187770E-004;2.067715628072619E-003;
2.403166666666667E+009;1.662410944700241E-001;2.546279132366180E-002;-2.926215238403529E-004;1.961279427632690E-003;
2.403333333333334E+009;1.673143208026886E-001;2.432458661496639E-002;-2.724352234508842E-004;1.800891011953354E-003;
2.403500000000000E+009;1.681602746248245E-001;2.294403500854969E-002;-1.356564025627449E-004;1.844210666604340E-003;
2.403666666666667E+009;1.691152602434158E-001;2.170196361839771E-002;-1.293551031267270E-004;1.814672490581870E-003;
2.403833333333334E+009;1.700874567031860E-001;2.059307694435120E-002;-8.482400153297931E-005;1.833071117289364E-003;
2.404000000000000E+009;1.710551381111145E-001;1.970387808978558E-002;6.741887045791373E-005;1.535037532448769E-003;
2.404166666666667E+009;1.718311905860901E-001;1.871930994093418E-002;1.580701355123892E-004;1.505864085629582E-003;
2.404333333333334E+009;1.727747768163681E-001;1.791613548994064E-002;4.063273954670876E-004;1.567184692248702E-003;
2.404500000000000E+009;1.734209507703781E-001;1.701418869197369E-002;1.600093237357214E-004;1.320944284088910E-003;
2.404666666666667E+009;1.744565516710281E-001;1.625579595565796E-002;3.504878259263933E-004;1.341924304142594E-003;
2.404833333333334E+009;1.752130240201950E-001;1.561301480978727E-002;3.490471572149545E-004;1.198826124891639E-003;
2.405000000000000E+009;1.761069446802139E-001;1.511383801698685E-002;5.237816367298365E-004;1.142072258517146E-003;
2.405166666666667E+009;1.766597777605057E-001;1.459853071719408E-002;4.200370167382062E-004;1.166763948276639E-003;
2.405333333333334E+009;1.772769540548325E-001;1.400430500507355E-002;4.036712634842843E-004;1.035272027365863E-003;
2.405500000000000E+009;1.779271066188812E-001;1.366734411567450E-002;4.370548122096807E-004;9.307359578087926E-004;
2.405666666666667E+009;1.784896999597549E-001;1.324242167174816E-002;3.133481950499117E-004;7.085921824909747E-004;
2.405833333333334E+009;1.786479502916336E-001;1.294955983757973E-002;4.050056159030646E-004;7.677890826016665E-004;
2.406000000000000E+009;1.793030351400375E-001;1.249237731099129E-002;4.729008360300213E-004;3.880513831973076E-004;
2.406166666666667E+009;1.792430132627487E-001;1.239725947380066E-002;4.365623462945223E-004;5.555011448450387E-004;
2.406333333333334E+009;1.797629147768021E-001;1.192799769341946E-002;4.689527268055826E-004;4.340398882050067E-004;
2.406500000000000E+009;1.798409372568131E-001;1.168158277869225E-002;5.844159750267863E-004;4.936032928526402E-004;
2.406666666666667E+009;1.797212362289429E-001;1.153379026800394E-002;5.371307488530874E-004;2.943319850601256E-004;
2.406833333333334E+009;1.797718107700348E-001;1.100956648588181E-002;4.236997046973556E-004;1.402560301357880E-004;
2.407000000000000E+009;1.796454936265945E-001;1.065881643444300E-002;4.830369434785098E-004;1.863943325588480E-004;
2.407166666666667E+009;1.796472519636154E-001;1.030033733695746E-002;4.002120404038578E-004;1.475485332775861E-004;
2.407333333333334E+009;1.792684644460678E-001;9.752280078828335E-003;2.115282404702157E-004;-1.024793964461424E-004;
2.407500000000000E+009;1.789952963590622E-001;9.337821044027805E-003;1.926317345350981E-004;-2.111800131388009E-004;
2.407666666666667E+009;1.786871254444122E-001;8.773957379162312E-003;1.356252905679867E-004;-1.586648286320269E-004;
2.407833333333334E+009;1.781006157398224E-001;7.979001849889755E-003;1.571057364344597E-004;-2.255044528283179E-004;
2.408000000000000E+009;1.777644455432892E-001;7.286021020263434E-003;8.117246579786297E-006;-2.399169025011361E-004;
2.408166666666667E+009;1.772262901067734E-001;6.611192598938942E-003;-4.208154132356867E-005;-3.137005260214210E-004;
2.408333333333334E+009;1.768312305212021E-001;5.724017508327961E-003;-1.474240852985531E-004;-2.992218069266528E-004;
2.408500000000000E+009;1.760788559913635E-001;4.713537171483040E-003;-1.660327106947079E-004;-2.036581281572580E-004;
2.408666666666667E+009;1.755426526069641E-001;3.720744512975216E-003;-1.883955992525443E-004;-4.157533112447709E-004;
2.408833333333334E+009;1.746828705072403E-001;2.656814176589251E-003;-4.201320407446474E-004;-2.025559224421158E-004;
2.409000000000000E+009;1.741506457328796E-001;1.437639119103551E-003;-2.567079791333526E-004;-4.411998088471592E-004;
2.409166666666667E+009;1.734874248504639E-001;2.680511097423732E-004;-3.044204204343259E-004;-2.934018557425588E-004;
2.409333333333334E+009;1.729751229286194E-001;-1.276618917472661E-003;-4.368812078610063E-004;-2.845175913535059E-004;
2.409500000000000E+009;1.722049415111542E-001;-2.965629799291492E-003;-5.712015554308891E-004;-3.000374126713723E-004;
2.409666666666667E+009;1.715741008520126E-001;-4.161427728831768E-003;-6.095209973864257E-004;-3.776782832574099E-004;
2.409833333333334E+009;1.708760410547257E-001;-5.698852241039276E-003;-7.200257387012243E-004;-4.387503431644291E-004;
2.410000000000000E+009;1.703315526247025E-001;-7.315581664443016E-003;-7.119111833162606E-004;-2.306903916178271E-004;
2.410166666666667E+009;1.699868589639664E-001;-8.862699382007122E-003;-7.521873922087252E-004;-2.761700598057360E-004;
2.410333333333334E+009;1.693958342075348E-001;-1.071361824870110E-002;-9.439440909773111E-004;-1.444000372430310E-004;
2.410500000000000E+009;1.690785139799118E-001;-1.262180786579847E-002;-9.878899436444044E-004;-3.799346450250596E-004;
2.410666666666667E+009;1.686547994613648E-001;-1.467094756662846E-002;-1.117066247388721E-003;-2.859392261598259E-004;
2.410833333333334E+009;1.683459877967835E-001;-1.620115526020527E-002;-9.108302765525878E-004;-1.273435191251338E-004;
2.411000000000000E+009;1.680930107831955E-001;-1.809869520366192E-002;-1.156479702331126E-003;-1.269307686015964E-004;
2.411166666666667E+009;1.681597232818604E-001;-2.023859508335590E-002;-1.147848437540233E-003;-1.201741761178710E-004;
2.411333333333334E+009;1.678444445133209E-001;-2.210467495024204E-002;-1.331923063844442E-003;2.540068453527056E-005;
2.411500000000000E+009;1.679968237876892E-001;-2.406622283160687E-002;-1.287832856178284E-003;-4.612633711076342E-005;
2.411666666666667E+009;1.680040955543518E-001;-2.599068731069565E-002;-1.477656536735594E-003;1.904268865473568E-004;
2.411833333333334E+009;1.679809987545013E-001;-2.774013020098209E-002;-1.379997935146093E-003;1.904998207464814E-004;
2.412000000000000E+009;1.682385504245758E-001;-2.971547842025757E-002;-1.505607389844954E-003;2.684133942238987E-004;
2.412166666666667E+009;1.686055958271027E-001;-3.167481720447540E-002;-1.415237435139716E-003;2.256258158013225E-004;
2.412333333333334E+009;1.690687239170075E-001;-3.356027230620384E-002;-1.478118239901960E-003;4.962178645655513E-004;
2.412500000000000E+009;1.692398190498352E-001;-3.535628691315651E-002;-1.528758555650711E-003;5.678461166098714E-004;
2.412666666666667E+009;1.697539687156677E-001;-3.719811886548996E-002;-1.606458914466202E-003;6.768781458958983E-004;
2.412833333333334E+009;1.703705489635468E-001;-3.883652016520500E-002;-1.633640727959573E-003;7.499592029489577E-004;
2.413000000000000E+009;1.707866489887238E-001;-4.054179787635803E-002;-1.519150799140334E-003;9.183187503367662E-004;
2.413166666666667E+009;1.711976081132889E-001;-4.225583747029305E-002;-1.511901151388884E-003;9.071842650882900E-004;
2.413333333333334E+009;1.717809438705444E-001;-4.378261789679527E-002;-1.611096784472466E-003;1.225033542141318E-003;
2.413500000000000E+009;1.723513007164002E-001;-4.545475542545319E-002;-1.455130870454013E-003;1.143565401434898E-003;
2.413666666666667E+009;1.730192303657532E-001;-4.677803441882134E-002;-1.454059849493206E-003;1.266075414605439E-003;
2.413833333333334E+009;1.736505776643753E-001;-4.810918495059013E-002;-1.304272213019431E-003;1.385034061968327E-003;
2.414000000000000E+009;1.740155667066574E-001;-4.942011088132858E-002;-1.321089919656515E-003;1.478236285038292E-003;
2.414166666666667E+009;1.746191531419754E-001;-5.055141448974609E-002;-1.194015610963106E-003;1.399880857206881E-003;
2.414333333333334E+009;1.751692593097687E-001;-5.159828066825867E-002;-1.175330602563918E-003;1.654677558690310E-003;
2.414500000000000E+009;1.758800446987152E-001;-5.254030600190163E-002;-1.062466646544635E-003;1.555724418722093E-003;
2.414666666666667E+009;1.764255166053772E-001;-5.353425443172455E-002;-1.063370029442012E-003;1.756262034177780E-003;
2.414833333333334E+009;1.767275035381317E-001;-5.436266586184502E-002;-8.202411117963493E-004;1.732977572828531E-003;
2.415000000000000E+009;1.770795434713364E-001;-5.507151409983635E-002;-8.465512073598802E-004;1.820767181925476E-003;
2.415166666666667E+009;1.774392127990723E-001;-5.573624372482300E-002;-6.851056241430342E-004;1.878850860521197E-003;
2.415333333333334E+009;1.778074353933334E-001;-5.638858303427696E-002;-7.362533942796290E-004;1.886566402390599E-003;
2.415500000000000E+009;1.780832558870316E-001;-5.693850293755531E-002;-4.839910834562033E-004;1.966232899576426E-003;
2.415666666666667E+009;1.782375276088715E-001;-5.744594708085060E-002;-3.666223201435059E-004;1.934127882122994E-003;
2.415833333333334E+009;1.784604042768478E-001;-5.786301195621491E-002;-2.944594307336956E-004;1.875543850474060E-003;
2.416000000000000E+009;1.781597435474396E-001;-5.825518816709518E-002;-3.646028926596046E-004;1.926173339597881E-003;
2.416166666666667E+009;1.783629953861237E-001;-5.854684486985207E-002;-7.368290971498936E-005;1.865499652922154E-003;
2.416333333333334E+009;1.781473308801651E-001;-5.875199288129807E-002;-8.038145097089000E-006;1.793023780919612E-003;
2.416500000000000E+009;1.779478490352631E-001;-5.898674204945564E-002;1.544781116535887E-004;1.661127898842096E-003;
2.416666666666667E+009;1.775836348533630E-001;-5.918448790907860E-002;5.280385448713787E-005;1.689084223471582E-003;
2.416833333333334E+009;1.771712601184845E-001;-5.957125872373581E-002;3.131644552922808E-005;1.766443601809442E-003;
2.417000000000000E+009;1.765539348125458E-001;-5.974851176142693E-002;1.284812169615179E-004;1.559429336339235E-003;
2.417166666666667E+009;1.759442090988159E-001;-6.008202210068703E-002;2.963452134281397E-004;1.753715914674103E-003;
2.417333333333334E+009;1.754130721092224E-001;-6.013667583465576E-002;2.308115217601880E-004;1.694704638794065E-003;
2.417500000000000E+009;1.744868606328964E-001;-6.058740988373756E-002;1.802690676413477E-004;1.518951845355332E-003;
2.417666666666667E+009;1.736891269683838E-001;-6.066551059484482E-002;1.770381059031934E-004;1.666154712438583E-003;
2.417833333333334E+009;1.727763861417770E-001;-6.113974377512932E-002;3.337702364660800E-004;1.382040441967547E-003;
2.418000000000000E+009;1.718203127384186E-001;-6.157021969556809E-002;3.982317575719208E-004;1.477572368457913E-003;
2.418166666666667E+009;1.708286404609680E-001;-6.174552440643311E-002;3.617742622736841E-004;1.568194478750229E-003;
2.418333333333334E+009;1.699338406324387E-001;-6.250552088022232E-002;2.755249151960015E-004;1.551884342916310E-003;
2.418500000000000E+009;1.685413718223572E-001;-6.288786232471466E-002;2.389698784099892E-004;1.452612108550966E-003;
2.418666666666667E+009;1.675602197647095E-001;-6.356743723154068E-002;4.281352739781141E-004;1.385207870043814E-003;
2.418833333333334E+009;1.662433147430420E-001;-6.429909914731979E-002;4.589676391333342E-004;1.350590377114713E-003;
2.419000000000000E+009;1.649655550718308E-001;-6.492141634225845E-002;3.733906778506935E-004;1.304597826674581E-003;
2.419166666666667E+009;1.639392673969269E-001;-6.562128663063049E-002;4.503423406276852E-004;1.325333956629038E-003;
2.419333333333334E+009;1.624876409769058E-001;-6.632837653160095E-002;4.435146984178573E-004;1.304231118410826E-003;
2.419500000000000E+009;1.613008081912994E-001;-6.763071566820145E-002;4.500491486396641E-004;1.400973531417549E-003;
2.419666666666667E+009;1.603888273239136E-001;-6.852084398269653E-002;3.828942135442048E-004;1.381680020131171E-003;
2.419833333333334E+009;1.590595692396164E-001;-6.950370222330093E-002;5.324138910509646E-004;1.197370467707515E-003;
2.420000000000000E+009;1.579998135566711E-001;-7.068044692277908E-002;4.613885830622166E-004;1.066069584339857E-003;
2.420166666666667E+009;1.569195389747620E-001;-7.189451158046722E-002;4.717346164397895E-004;1.158498576842248E-003;
2.420333333333334E+009;1.560384035110474E-001;-7.321761548519135E-002;5.090159247629345E-004;1.302593853324652E-003;
2.420500000000000E+009;1.550696939229965E-001;-7.457539439201355E-002;4.749608051497489E-004;1.259587006643415E-003;
2.420666666666667E+009;1.541094630956650E-001;-7.605352997779846E-002;6.329866009764373E-004;1.252402318641543E-003;
2.420833333333334E+009;1.532118767499924E-001;-7.758159190416336E-002;5.565813044086099E-004;1.263732672668994E-003;
2.421000000000000E+009;1.523680537939072E-001;-7.919517904520035E-002;6.292473990470171E-004;1.253939699381590E-003;
2.421166666666667E+009;1.517613828182221E-001;-8.063589036464691E-002;4.338888975325972E-004;1.127563184127212E-003;
2.421333333333334E+009;1.513491719961166E-001;-8.231689035892487E-002;4.069230344612151E-004;1.363394083455205E-003;
2.421500000000000E+009;1.507495492696762E-001;-8.389427512884140E-002;5.423782276920974E-004;1.338974456302822E-003;
2.421666666666667E+009;1.502571702003479E-001;-8.562518656253815E-002;3.910057130269706E-004;1.235900213941932E-003;
2.421833333333334E+009;1.500068753957748E-001;-8.719520270824432E-002;6.189966807141900E-004;1.221739687025547E-003;
2.422000000000000E+009;1.494840830564499E-001;-8.876451104879379E-002;5.005017155781388E-004;1.363551127724350E-003;
2.422166666666667E+009;1.494293808937073E-001;-9.082999080419540E-002;5.274114082567394E-004;1.403725589625537E-003;
2.422333333333334E+009;1.494557708501816E-001;-9.237889945507050E-002;5.867542349733412E-004;1.305814832448959E-003;
2.422500000000000E+009;1.493702381849289E-001;-9.388840198516846E-002;6.132025155238807E-004;1.121910172514617E-003;
2.422666666666667E+009;1.493781656026840E-001;-9.549763798713684E-002;6.195339374244213E-004;1.344472519122064E-003;
2.422833333333334E+009;1.495778709650040E-001;-9.735513478517532E-002;6.592229474335909E-004;1.377803273499012E-003;
2.423000000000000E+009;1.497505605220795E-001;-9.885082393884659E-002;6.682303501293063E-004;1.410262892022729E-003;
2.423166666666667E+009;1.500588506460190E-001;-1.003186926245689E-001;7.186642615124583E-004;1.366410520859063E-003;
2.423333333333334E+009;1.504275947809219E-001;-1.017438992857933E-001;8.733171853236854E-004;1.451143529266119E-003;
2.423500000000000E+009;1.508573740720749E-001;-1.032221689820290E-001;8.637260762043297E-004;1.262254081666470E-003;
2.423666666666667E+009;1.511331945657730E-001;-1.046875268220902E-001;9.190466371364892E-004;1.349108992144465E-003;
2.423833333333334E+009;1.516908854246140E-001;-1.060548052191734E-001;1.008248887956142E-003;1.391952275298536E-003;
2.424000000000000E+009;1.520247757434845E-001;-1.070109233260155E-001;1.116903265938163E-003;1.428641262464225E-003;
2.424166666666667E+009;1.524657756090164E-001;-1.083194538950920E-001;1.159857842139900E-003;1.342272269539535E-003;
2.424333333333334E+009;1.530633121728897E-001;-1.094127520918846E-001;1.059446018189192E-003;1.307347090914846E-003;
2.424500000000000E+009;1.536266654729843E-001;-1.105301976203919E-001;1.166248111985624E-003;1.192951807752252E-003;
2.424666666666667E+009;1.541381329298019E-001;-1.111687868833542E-001;1.144696492701769E-003;1.350694568827748E-003;
2.424833333333334E+009;1.544441133737564E-001;-1.121088564395905E-001;1.137947663664818E-003;1.251652371138334E-003;
2.425000000000000E+009;1.549647152423859E-001;-1.131343394517899E-001;1.367994002066553E-003;1.313605695031583E-003;
2.425166666666667E+009;1.551648378372192E-001;-1.136789992451668E-001;1.295973197557032E-003;1.164189656265080E-003;
2.425333333333334E+009;1.555655449628830E-001;-1.143554002046585E-001;1.337339868769050E-003;1.090825651772320E-003;
2.425500000000000E+009;1.559166312217712E-001;-1.150116845965385E-001;1.547368010506034E-003;1.091331359930337E-003;
2.425666666666667E+009;1.559854149818420E-001;-1.154773384332657E-001;1.418704749085009E-003;1.184037071652710E-003;
2.425833333333334E+009;1.562782675027847E-001;-1.158750653266907E-001;1.567652332596481E-003;9.530968964099884E-004;
2.426000000000000E+009;1.563306152820587E-001;-1.162530928850174E-001;1.410295488312841E-003;1.003968412987888E-003;
2.426166666666667E+009;1.566546857357025E-001;-1.166777685284615E-001;1.439658110029995E-003;7.799020386300981E-004;
2.426333333333334E+009;1.565658003091812E-001;-1.169216111302376E-001;1.566240214742720E-003;9.085925994440913E-004;
2.426500000000000E+009;1.563653349876404E-001;-1.170638799667358E-001;1.407722127623856E-003;7.770598749630153E-004;
2.426666666666667E+009;1.563899368047714E-001;-1.171887069940567E-001;1.425537047907710E-003;9.217099868692458E-004;
2.426833333333334E+009;1.559392809867859E-001;-1.174467355012894E-001;1.552983070723712E-003;8.661247557029128E-004;
2.427000000000000E+009;1.555331796407700E-001;-1.176317334175110E-001;1.458299928344786E-003;6.999188335612416E-004;
2.427166666666667E+009;1.550844609737396E-001;-1.176619157195091E-001;1.550706103444099E-003;9.415228269062936E-004;
2.427333333333334E+009;1.544331461191177E-001;-1.177786514163017E-001;1.509738620370626E-003;7.485906826332212E-004;
2.427500000000000E+009;1.539860069751740E-001;-1.178679466247559E-001;1.529181725345552E-003;7.247363100759685E-004;
2.427666666666667E+009;1.530410498380661E-001;-1.181216239929199E-001;1.486437045969069E-003;8.253398118540645E-004;
2.427833333333334E+009;1.520931720733643E-001;-1.181664466857910E-001;1.521624624729157E-003;7.221777923405170E-004;
