# Version 1.00
#
freq[Hz];re:Trc1_S11;im:Trc1_S11;re:Trc2_S21;im:Trc2_S21;
2.400000000000000E+009;1.572156399488449E-001;6.095799431204796E-002;-2.983465325087309E-003;1.376191619783640E-003;
2.400166666666667E+009;1.572865694761276E-001;5.929361656308174E-002;-2.880993997678161E-003;1.503892010077834E-003;
2.400333333333334E+009;1.572567671537399E-001;5.719865486025810E-002;-2.810790669173002E-003;1.632314291782677E-003;
2.400500000000000E+009;1.575442999601364E-001;5.509959161281586E-002;-2.817236352711916E-003;1.844692626036704E-003;
2.400666666666667E+009;1.576789319515228E-001;5.294729024171829E-002;-2.604029607027769E-003;1.774793025106192E-003;
2.400833333333334E+009;1.579884588718414E-001;5.119661241769791E-002;-2.650718204677105E-003;1.830059569329023E-003;
2.401000000000000E+009;1.581213325262070E-001;4.914542287588120E-002;-2.381205325946212E-003;2.028438961133361E-003;
2.401166666666667E+009;1.585021615028381E-001;4.702143371105194E-002;-2.487475518137217E-003;2.113888971507549E-003;
2.401333333333334E+009;1.586609333753586E-001;4.484955966472626E-002;-2.145601902157068E-003;2.155221067368984E-003;
2.401500000000000E+009;1.593264490365982E-001;4.280047118663788E-002;-2.028670627623797E-003;2.102876780554652E-003;
2.401666666666667E+009;1.598404645919800E-001;4.089851304888725E-002;-1.779207610525191E-003;2.336502075195313E-003;
2.401833333333334E+009;1.603291481733322E-001;3.894969448447228E-002;-1.769410446286202E-003;2.358622150495648E-003;
2.402000000000000E+009;1.609863787889481E-001;3.702849522233009E-002;-1.507020904682577E-003;2.284368965774775E-003;
2.402166666666667E+009;1.614398807287216E-001;3.502886369824410E-002;-1.417269930243492E-003;2.442540833726525E-003;
2.402333333333334E+009;1.622088998556137E-001;3.341320902109146E-002;-1.171519747003913E-003;2.461793599650264E-003;
2.402500000000000E+009;1.630202978849411E-001;3.160591796040535E-002;-1.130102900788188E-003;2.324206987395883E-003;
2.402666666666667E+009;1.638625264167786E-001;3.009828925132752E-002;-8.904873975552619E-004;2.250865101814270E-003;
2.402833333333334E+009;1.646765470504761E-001;2.838448248803616E-002;-7.160927634686232E-004;2.258456777781248E-003;
2.403000000000000E+009;1.655220985412598E-001;2.695460617542267E-002;-5.548399058170617E-004;2.271082252264023E-003;
2.403166666666667E+009;1.662505120038986E-001;2.559468336403370E-002;-5.387468263506889E-004;2.064807573333383E-003;
2.403333333333334E+009;1.670800000429153E-001;2.425564825534821E-002;-4.239399568177760E-004;2.130478154867888E-003;
2.403500000000000E+009;1.680768430233002E-001;2.297422289848328E-002;-3.305637801531702E-004;2.141386969015002E-003;
2.403666666666667E+009;1.688941717147827E-001;2.190552465617657E-002;-1.921041111927480E-004;1.892035827040672E-003;
2.403833333333334E+009;1.701907962560654E-001;2.060257457196713E-002;-2.491751802153885E-004;1.861870521679521E-003;
2.404000000000000E+009;1.709610670804977E-001;1.978489384055138E-002;8.987243745650630E-006;1.757204998284578E-003;
2.404166666666667E+009;1.718283593654633E-001;1.861879043281078E-002;1.288239582208917E-004;1.649046083912253E-003;
2.404333333333334E+009;1.727490574121475E-001;1.790356636047363E-002;1.413554855389521E-004;1.586685073561966E-003;
2.404500000000000E+009;1.736258417367935E-001;1.696252264082432E-002;1.904507080325857E-004;1.571895321831107E-003;
2.404666666666667E+009;1.743158996105194E-001;1.642326824367046E-002;2.559906861279160E-004;1.263766782358289E-003;
2.404833333333334E+009;1.751864701509476E-001;1.561789773404598E-002;4.256606916896999E-004;1.344086602330208E-003;
2.405000000000000E+009;1.760197579860687E-001;1.510389614850283E-002;4.221177659928799E-004;1.280450844205916E-003;
2.405166666666667E+009;1.766154021024704E-001;1.462504640221596E-002;3.675809421110898E-004;1.169724157080054E-003;
2.405333333333334E+009;1.774230450391769E-001;1.418996695429087E-002;5.061133415438235E-004;1.167043577879667E-003;
2.405500000000000E+009;1.778671145439148E-001;1.362738665193319E-002;3.621187061071396E-004;1.076628454029560E-003;
2.405666666666667E+009;1.782741099596024E-001;1.331613864749670E-002;3.695324703585357E-004;9.764916612766683E-004;
2.405833333333334E+009;1.785469502210617E-001;1.309374812990427E-002;5.405020201578736E-004;7.637197268195450E-004;
2.406000000000000E+009;1.791073977947235E-001;1.263515558093786E-002;7.080744835548103E-004;8.751205750741065E-004;
2.406166666666667E+009;1.793811172246933E-001;1.244960166513920E-002;3.580236807465553E-004;7.704824674874544E-004;
2.406333333333334E+009;1.798270344734192E-001;1.209862623363733E-002;5.409668665379286E-004;6.419069250114262E-004;
2.406500000000000E+009;1.797869056463242E-001;1.166067644953728E-002;6.152737187221646E-004;4.131511668674648E-004;
2.406666666666667E+009;1.797237545251846E-001;1.145356148481369E-002;4.945901455357671E-004;4.367698566056788E-004;
2.406833333333334E+009;1.798961162567139E-001;1.104834675788879E-002;4.456674796529114E-004;3.549315733835101E-004;
2.407000000000000E+009;1.798297017812729E-001;1.064228080213070E-002;4.095333279110491E-004;3.431754885241389E-004;
2.407166666666667E+009;1.796571612358093E-001;1.034058816730976E-002;4.418496391735971E-004;3.622016447479837E-005;
2.407333333333334E+009;1.793925911188126E-001;9.771922603249550E-003;2.779723436105996E-004;2.152803936041892E-004;
2.407500000000000E+009;1.790527403354645E-001;9.312121197581291E-003;3.564179642125964E-004;-1.019770934362896E-004;
2.407666666666667E+009;1.787962168455124E-001;8.617690764367580E-003;2.101942955050618E-004;1.608021702850238E-004;
2.407833333333334E+009;1.782750338315964E-001;7.991115562617779E-003;1.825888757593930E-004;-1.786944631021470E-005;
2.408000000000000E+009;1.777891665697098E-001;7.149135228246450E-003;1.113381586037576E-004;-1.938999776029959E-004;
2.408166666666667E+009;1.772471815347672E-001;6.503621581941843E-003;5.950789272901602E-005;-2.279354375787079E-004;
2.408333333333334E+009;1.768131703138351E-001;5.629620049148798E-003;-1.488993293605745E-004;-2.229210222139955E-004;
2.408500000000000E+009;1.761909723281860E-001;4.602952394634485E-003;-1.550216984469444E-004;-2.455158974044025E-004;
2.408666666666667E+009;1.756362020969391E-001;3.496879246085882E-003;-8.621696906629950E-005;-3.041909076273441E-004;
2.408833333333334E+009;1.748286485671997E-001;2.403632272034884E-003;-2.157503913622350E-004;-3.631425497587770E-004;
2.409000000000000E+009;1.741623729467392E-001;1.301234238781035E-003;-2.291847922606394E-004;-2.476524387020618E-004;
2.409166666666667E+009;1.735528856515884E-001;1.136202627094463E-004;-3.965158830396831E-004;-2.563564921729267E-004;
2.409333333333334E+009;1.729933172464371E-001;-1.270091393962503E-003;-4.350503149908036E-004;-4.089162976015359E-004;
2.409500000000000E+009;1.723024547100067E-001;-2.923295833170414E-003;-3.477641730569303E-004;-2.886395377572626E-004;
2.409666666666667E+009;1.716306209564209E-001;-4.327803850173950E-003;-5.541733116842806E-004;-2.804736723192036E-004;
2.409833333333334E+009;1.709520965814591E-001;-5.819454323500395E-003;-5.513835931196809E-004;-2.871158358175308E-004;
2.410000000000000E+009;1.706411689519882E-001;-7.432685699313879E-003;-6.342543638311327E-004;-2.733601722866297E-004;
2.410166666666667E+009;1.700534522533417E-001;-9.174563921988010E-003;-5.884114652872086E-004;-1.780076709110290E-004;
2.410333333333334E+009;1.693125665187836E-001;-1.083101704716682E-002;-6.877888226881623E-004;-3.296874347142875E-004;
2.410500000000000E+009;1.689863204956055E-001;-1.270028948783875E-002;-8.603653986938298E-004;-1.519768266007304E-004;
2.410666666666667E+009;1.686736792325974E-001;-1.460911706089973E-002;-8.619792060926557E-004;-2.222549082944170E-004;
2.410833333333334E+009;1.685022562742233E-001;-1.633633300662041E-002;-1.021333388052881E-003;-2.059662074316293E-004;
2.411000000000000E+009;1.679937690496445E-001;-1.823321916162968E-002;-1.042185584083200E-003;-1.413496793247759E-004;
2.411166666666667E+009;1.679634898900986E-001;-2.022479288280010E-002;-1.078591682016850E-003;-1.701309956843033E-004;
2.411333333333334E+009;1.678859293460846E-001;-2.213541045784950E-002;-1.080195768736303E-003;3.025413752766326E-005;
2.411500000000000E+009;1.678293049335480E-001;-2.412926405668259E-002;-1.225676969625056E-003;1.038046393659897E-004;
2.411666666666667E+009;1.680257767438889E-001;-2.610795758664608E-002;-1.283204299397767E-003;4.737378185382113E-005;
2.411833333333334E+009;1.680614203214645E-001;-2.776947617530823E-002;-1.314420136623085E-003;2.481785486452282E-004;
2.412000000000000E+009;1.682804524898529E-001;-2.981647662818432E-002;-1.318430178798735E-003;2.866367285605520E-004;
2.412166666666667E+009;1.685672700405121E-001;-3.177075088024139E-002;-1.337794004939497E-003;4.062741063535214E-004;
2.412333333333334E+009;1.690540611743927E-001;-3.351045399904251E-002;-1.380137284286320E-003;3.425866307225078E-004;
2.412500000000000E+009;1.693342179059982E-001;-3.532012179493904E-002;-1.476777251809835E-003;6.244746618904173E-004;
2.412666666666667E+009;1.697135865688324E-001;-3.722367808222771E-002;-1.425667898729444E-003;6.510309176519513E-004;
2.412833333333334E+009;1.703372746706009E-001;-3.904126212000847E-002;-1.421296037733555E-003;6.554765859618783E-004;
2.413000000000000E+009;1.705909520387650E-001;-4.066300019621849E-002;-1.380076515488327E-003;8.264518110081554E-004;
2.413166666666667E+009;1.711610406637192E-001;-4.230475798249245E-002;-1.506404252722859E-003;9.844958549365401E-004;
2.413333333333334E+009;1.716304570436478E-001;-4.385536909103394E-002;-1.377430045977235E-003;1.073908992111683E-003;
2.413500000000000E+009;1.723347753286362E-001;-4.537089541554451E-002;-1.484764274209738E-003;1.089124823920429E-003;
2.413666666666667E+009;1.731216013431549E-001;-4.666196927428246E-002;-1.395243802107871E-003;1.194201293401420E-003;
2.413833333333334E+009;1.735730618238449E-001;-4.814272746443749E-002;-1.279736985452473E-003;1.196279539726675E-003;
2.414000000000000E+009;1.738862842321396E-001;-4.945026710629463E-002;-1.202931394800544E-003;1.317352987825871E-003;
2.414166666666667E+009;1.746030598878861E-001;-5.056070908904076E-002;-1.191156799905002E-003;1.427662442438304E-003;
2.414333333333334E+009;1.751951277256012E-001;-5.160728096961975E-002;-1.086927601136267E-003;1.549649867229164E-003;
2.414500000000000E+009;1.759269833564758E-001;-5.255226045846939E-002;-9.973793057724834E-004;1.599243027158082E-003;
2.414666666666667E+009;1.762071698904038E-001;-5.350616574287415E-002;-1.071592909283936E-003;1.606810721568763E-003;
2.414833333333334E+009;1.766939312219620E-001;-5.439797788858414E-002;-8.736452437005937E-004;1.601700321771205E-003;
2.415000000000000E+009;1.770486682653427E-001;-5.508155003190041E-002;-8.563948213122785E-004;1.661435584537685E-003;
2.415166666666667E+009;1.775626987218857E-001;-5.581962317228317E-002;-7.201905827969313E-004;1.836806768551469E-003;
2.415333333333334E+009;1.778751462697983E-001;-5.649138614535332E-002;-5.526755703613162E-004;1.855444977991283E-003;
2.415500000000000E+009;1.780845522880554E-001;-5.693346634507179E-002;-4.443146463017911E-004;1.769493916071951E-003;
2.415666666666667E+009;1.781736314296722E-001;-5.728055536746979E-002;-3.155230078846216E-004;1.838084193877876E-003;
2.415833333333334E+009;1.782778650522232E-001;-5.786565318703651E-002;-3.687127318698913E-004;1.924904063344002E-003;
2.416000000000000E+009;1.780805736780167E-001;-5.800987780094147E-002;-9.448437776882201E-005;1.967562129721046E-003;
2.416166666666667E+009;1.783428490161896E-001;-5.844867229461670E-002;-2.008297742577270E-004;1.911606756038964E-003;
2.416333333333334E+009;1.780789941549301E-001;-5.862880870699883E-002;-1.424939837306738E-004;1.741113374009728E-003;
2.416500000000000E+009;1.779223829507828E-001;-5.899265781044960E-002;-1.617907037143596E-005;1.750851981341839E-003;
2.416666666666667E+009;1.774968206882477E-001;-5.920575931668282E-002;-1.514536124886945E-004;1.786208013072610E-003;
2.416833333333334E+009;1.771910488605499E-001;-5.955456942319870E-002;-1.889377927000169E-005;1.638581976294518E-003;
2.417000000000000E+009;1.764372438192368E-001;-5.974596738815308E-002;2.123335289070383E-004;1.705217757262290E-003;
2.417166666666667E+009;1.759334951639175E-001;-5.995123088359833E-002;1.175755460280925E-004;1.506599248386920E-003;
2.417333333333334E+009;1.752788722515106E-001;-6.015511974692345E-002;1.318648573942483E-004;1.585184829309583E-003;
2.417500000000000E+009;1.744232922792435E-001;-6.046457588672638E-002;2.396156196482480E-004;1.633699983358383E-003;
2.417666666666667E+009;1.736491620540619E-001;-6.070956215262413E-002;2.761855721473694E-004;1.561176613904536E-003;
2.417833333333334E+009;1.729192733764648E-001;-6.106986850500107E-002;2.181004674639553E-004;1.540485885925591E-003;
2.418000000000000E+009;1.718106567859650E-001;-6.155098602175713E-002;2.411407331237570E-004;1.504027168266475E-003;
2.418166666666667E+009;1.706131249666214E-001;-6.177870556712151E-002;4.442015488166362E-004;1.420584158040583E-003;
2.418333333333334E+009;1.699074804782867E-001;-6.240980327129364E-002;3.015139081981033E-004;1.391495927236974E-003;
2.418500000000000E+009;1.686334460973740E-001;-6.289234757423401E-002;4.553037870209664E-004;1.398340449668467E-003;
2.418666666666667E+009;1.676148474216461E-001;-6.352537870407105E-002;3.217735793441534E-004;1.433536526747048E-003;
2.418833333333334E+009;1.662034690380096E-001;-6.427516788244247E-002;3.489991067908704E-004;1.337824272923172E-003;
2.419000000000000E+009;1.649950146675110E-001;-6.496225297451019E-002;3.782013372983784E-004;1.363868359476328E-003;
2.419166666666667E+009;1.638383567333221E-001;-6.564394384622574E-002;5.917544476687908E-004;1.381131354719400E-003;
2.419333333333334E+009;1.625107377767563E-001;-6.632742285728455E-002;4.713046364486218E-004;1.327331759966910E-003;
2.419500000000000E+009;1.614100039005280E-001;-6.746047735214233E-002;4.347165231592953E-004;1.385782612487674E-003;
2.419666666666667E+009;1.602637767791748E-001;-6.866547465324402E-002;5.176494596526027E-004;1.250659697689116E-003;
2.419833333333334E+009;1.590487211942673E-001;-6.957812607288361E-002;4.960363730788231E-004;1.322557800449431E-003;
2.420000000000000E+009;1.580812335014343E-001;-7.082117348909378E-002;4.517034394666553E-004;1.162900472991169E-003;
2.420166666666667E+009;1.568805426359177E-001;-7.188512384891510E-002;4.950405564159155E-004;1.253560883924365E-003;
2.420333333333334E+009;1.558679044246674E-001;-7.335335761308670E-002;4.423716745804995E-004;1.262922072783113E-003;
2.420500000000000E+009;1.550606489181519E-001;-7.452087849378586E-002;4.992011236026883E-004;1.194793032482266E-003;
2.420666666666667E+009;1.538899093866348E-001;-7.594264298677445E-002;4.512104205787182E-004;1.228927518241108E-003;
2.420833333333334E+009;1.532265543937683E-001;-7.755657285451889E-002;5.233652191236615E-004;1.180496066808701E-003;
2.421000000000000E+009;1.523446291685104E-001;-7.890073210000992E-002;4.792730032932013E-004;1.188181573525071E-003;
2.421166666666667E+009;1.518445760011673E-001;-8.047106862068176E-002;5.430105957202613E-004;1.154983066953719E-003;
2.421333333333334E+009;1.511574238538742E-001;-8.225074410438538E-002;4.991439636796713E-004;1.222310354933143E-003;
2.421500000000000E+009;1.505821198225021E-001;-8.380641788244247E-002;5.049502942711115E-004;1.253609661944211E-003;
2.421666666666667E+009;1.502908617258072E-001;-8.557291328907013E-002;6.597409374080598E-004;1.227016909979284E-003;
2.421833333333334E+009;1.497791111469269E-001;-8.713965862989426E-002;7.230586488731206E-004;1.119059743359685E-003;
2.422000000000000E+009;1.496959328651428E-001;-8.881570398807526E-002;6.704444531351328E-004;1.121809938922525E-003;
2.422166666666667E+009;1.495955139398575E-001;-9.074693918228149E-002;5.191855598241091E-004;1.247143023647368E-003;
2.422333333333334E+009;1.494085490703583E-001;-9.216279536485672E-002;5.856647039763629E-004;1.160830841399729E-003;
2.422500000000000E+009;1.494086533784866E-001;-9.384334832429886E-002;6.927273934707046E-004;1.248570741154254E-003;
2.422666666666667E+009;1.493842452764511E-001;-9.547591209411621E-002;6.242948002181947E-004;1.246275263838470E-003;
2.422833333333334E+009;1.496518999338150E-001;-9.723354876041412E-002;8.365597459487617E-004;1.279941876418889E-003;
2.423000000000000E+009;1.499241441488266E-001;-9.870826452970505E-002;6.806554156355560E-004;1.367376768030226E-003;
2.423166666666667E+009;1.500399112701416E-001;-1.002026200294495E-001;6.564114009961486E-004;1.247633714228869E-003;
2.423333333333334E+009;1.505834162235260E-001;-1.015744358301163E-001;7.287952466867864E-004;1.339062699116767E-003;
2.423500000000000E+009;1.509585082530975E-001;-1.032489538192749E-001;8.414047188125551E-004;1.245468622073531E-003;
2.423666666666667E+009;1.510903090238571E-001;-1.048762649297714E-001;9.065440390259028E-004;1.224818290211260E-003;
2.423833333333334E+009;1.518049389123917E-001;-1.060587689280510E-001;1.070106984116137E-003;1.263448037207127E-003;
2.424000000000000E+009;1.521558463573456E-001;-1.071355193853378E-001;8.738099131733179E-004;1.259460928849876E-003;
2.424166666666667E+009;1.525552570819855E-001;-1.084230542182922E-001;9.320229291915894E-004;1.228599227033556E-003;
2.424333333333334E+009;1.531094312667847E-001;-1.094438806176186E-001;1.132917706854641E-003;1.282406272366643E-003;
2.424500000000000E+009;1.535719037055969E-001;-1.104195564985275E-001;1.002382952719927E-003;1.367926946841180E-003;
2.424666666666667E+009;1.541906595230103E-001;-1.114247143268585E-001;1.151797710917890E-003;1.109008095227182E-003;
2.424833333333334E+009;1.544522643089294E-001;-1.123429536819458E-001;1.231155591085553E-003;1.218491815961897E-003;
2.425000000000000E+009;1.549884378910065E-001;-1.130056455731392E-001;1.212949748151004E-003;1.187348389066756E-003;
2.425166666666667E+009;1.551148444414139E-001;-1.137273833155632E-001;1.237498014234006E-003;1.092421007342637E-003;
2.425333333333334E+009;1.556463092565537E-001;-1.144646704196930E-001;1.329289749264717E-003;9.729016455821693E-004;
2.425500000000000E+009;1.559300124645233E-001;-1.150512471795082E-001;1.288145664148033E-003;9.137949673458934E-004;
2.425666666666667E+009;1.560403555631638E-001;-1.155330017209053E-001;1.125760492868722E-003;9.604788501746953E-004;
2.425833333333334E+009;1.563829779624939E-001;-1.158880963921547E-001;1.379868946969509E-003;1.065062708221376E-003;
2.426000000000000E+009;1.564403921365738E-001;-1.163451299071312E-001;1.371661899611354E-003;9.058304131031036E-004;
2.426166666666667E+009;1.565909236669540E-001;-1.166844889521599E-001;1.345554017461836E-003;8.788967388682067E-004;
2.426333333333334E+009;1.564570516347885E-001;-1.170117408037186E-001;1.473672455176711E-003;1.041654380969703E-003;
2.426500000000000E+009;1.564446091651917E-001;-1.170512810349464E-001;1.399346045218408E-003;9.313969640061259E-004;
2.426666666666667E+009;1.563581526279450E-001;-1.172328591346741E-001;1.513798022642732E-003;9.219754138030112E-004;
2.426833333333334E+009;1.559906005859375E-001;-1.174510046839714E-001;1.531359856016934E-003;7.890900596976280E-004;
2.427000000000000E+009;1.555729210376740E-001;-1.176682263612747E-001;1.438878010958433E-003;6.801967974752188E-004;
2.427166666666667E+009;1.551308929920197E-001;-1.176456436514854E-001;1.565430662594736E-003;8.561846916563809E-004;
2.427333333333334E+009;1.544760465621948E-001;-1.178463399410248E-001;1.379025401547551E-003;7.521859952248633E-004;
2.427500000000000E+009;1.539650559425354E-001;-1.179622635245323E-001;1.458424259908497E-003;8.132543880492449E-004;
2.427666666666667E+009;1.530438065528870E-001;-1.181655526161194E-001;1.463450258597732E-003;7.375046843662858E-004;
2.427833333333334E+009;1.521306782960892E-001;-1.183095052838326E-001;1.441419357433915E-003;7.428773678839207E-004;
