# Version 1.00
#
freq[Hz];re:Trc1_S11;im:Trc1_S11;re:Trc2_S21;im:Trc2_S21;
2.400000000000000E+009;1.545080840587616E-001;6.134280934929848E-002;3.114124527201057E-003;-2.452220069244504E-003;
2.400166666666667E+009;1.547426432371140E-001;5.947955697774887E-002;3.061171155422926E-003;-2.447901992127299E-003;
2.400333333333334E+009;1.545407921075821E-001;5.719027668237686E-002;3.021848388016224E-003;-2.677160780876875E-003;
2.400500000000000E+009;1.547802537679672E-001;5.508412048220635E-002;2.883266424760222E-003;-2.621554071083665E-003;
2.400666666666667E+009;1.550108939409256E-001;5.305305868387222E-002;2.903730375692248E-003;-2.715123118832707E-003;
2.400833333333334E+009;1.552626788616180E-001;5.074486136436462E-002;2.755516441538930E-003;-2.901092404499650E-003;
2.401000000000000E+009;1.556823551654816E-001;4.832397028803825E-002;2.723485929891467E-003;-2.962938044220209E-003;
2.401166666666667E+009;1.560391187667847E-001;4.602132737636566E-002;2.621417865157127E-003;-3.059429815039039E-003;
2.401333333333334E+009;1.564060747623444E-001;4.378348216414452E-002;2.403929131105542E-003;-3.250449430197477E-003;
2.401500000000000E+009;1.571419686079025E-001;4.159981384873390E-002;2.459624549373984E-003;-3.364590695127845E-003;
2.401666666666667E+009;1.577280610799789E-001;3.953547403216362E-002;2.262635855004191E-003;-3.355792257934809E-003;
2.401833333333334E+009;1.584775149822235E-001;3.739877045154572E-002;2.049032133072615E-003;-3.441985463723540E-003;
2.402000000000000E+009;1.590949594974518E-001;3.527427464723587E-002;2.039479324594140E-003;-3.548626322299242E-003;
2.402166666666667E+009;1.598615050315857E-001;3.324772045016289E-002;2.012386219576001E-003;-3.671907121315599E-003;
2.402333333333334E+009;1.607457548379898E-001;3.151685744524002E-002;1.882203854620457E-003;-3.789997892454267E-003;
2.402500000000000E+009;1.617916524410248E-001;2.963315322995186E-002;1.607322017662227E-003;-3.914585337042809E-003;
2.402666666666667E+009;1.626514643430710E-001;2.804242074489594E-002;1.320003881119192E-003;-3.790557384490967E-003;
2.402833333333334E+009;1.638694405555725E-001;2.648293599486351E-002;1.243284903466702E-003;-3.868272528052330E-003;
2.403000000000000E+009;1.648287922143936E-001;2.478210814297199E-002;9.902139427140355E-004;-3.872681176289916E-003;
2.403166666666667E+009;1.659340262413025E-001;2.341544069349766E-002;8.702430641278625E-004;-3.853858215734363E-003;
2.403333333333334E+009;1.672334074974060E-001;2.239071018993855E-002;6.960177561268210E-004;-3.751099342480302E-003;
2.403500000000000E+009;1.680373698472977E-001;2.094924263656139E-002;5.506046582013369E-004;-3.723375964909792E-003;
2.403666666666667E+009;1.692945063114166E-001;1.971964351832867E-002;4.252017242833972E-004;-3.903755918145180E-003;
2.403833333333334E+009;1.706018298864365E-001;1.878854818642139E-002;3.909437218680978E-004;-3.936962224543095E-003;
2.404000000000000E+009;1.717780977487564E-001;1.786191388964653E-002;7.957981870276853E-005;-3.915170207619667E-003;
2.404166666666667E+009;1.728375852108002E-001;1.694805920124054E-002;-1.304184697801247E-004;-3.798864083364606E-003;
2.404333333333334E+009;1.737972348928452E-001;1.631269231438637E-002;-1.998407533392310E-004;-3.713494632393122E-003;
2.404500000000000E+009;1.746492385864258E-001;1.551364362239838E-002;-5.717523163184524E-004;-3.616933710873127E-003;
2.404666666666667E+009;1.757676452398300E-001;1.510923635214567E-002;-4.074802855029702E-004;-3.467879723757505E-003;
2.404833333333334E+009;1.767007857561112E-001;1.459846459329128E-002;-6.487212376669049E-004;-3.528015222400427E-003;
2.405000000000000E+009;1.774954199790955E-001;1.412154082208872E-002;-6.413184455595911E-004;-3.366603748872876E-003;
2.405166666666667E+009;1.782663613557816E-001;1.385465823113918E-002;-8.036705548875034E-004;-3.392098937183619E-003;
2.405333333333334E+009;1.790672689676285E-001;1.351872738450766E-002;-8.408294524997473E-004;-3.056847490370274E-003;
2.405500000000000E+009;1.797403842210770E-001;1.322209928184748E-002;-1.198517391458154E-003;-3.112948033958674E-003;
2.405666666666667E+009;1.803895086050034E-001;1.317508425563574E-002;-1.147313974797726E-003;-2.922282787039876E-003;
2.405833333333334E+009;1.806017160415649E-001;1.319942902773619E-002;-1.167398062534630E-003;-2.818856853991747E-003;
2.406000000000000E+009;1.809808164834976E-001;1.283236593008041E-002;-1.152181881479919E-003;-2.637969097122550E-003;
2.406166666666667E+009;1.810775846242905E-001;1.299217063933611E-002;-1.382338581606746E-003;-2.700368408113718E-003;
2.406333333333334E+009;1.815053373575211E-001;1.287365145981312E-002;-1.474544056691229E-003;-2.510393038392067E-003;
2.406500000000000E+009;1.815452575683594E-001;1.262436900287867E-002;-1.279103918932378E-003;-2.437189454212785E-003;
2.406666666666667E+009;1.813595890998840E-001;1.257892977446318E-002;-1.198980724439025E-003;-2.230839803814888E-003;
2.406833333333334E+009;1.812371313571930E-001;1.234303880482912E-002;-1.226715510711074E-003;-2.153755398467183E-003;
2.407000000000000E+009;1.811625808477402E-001;1.212057564407587E-002;-1.371265971101821E-003;-1.973584527149797E-003;
2.407166666666667E+009;1.809545755386353E-001;1.195076107978821E-002;-1.383155118674040E-003;-1.840013545006514E-003;
2.407333333333334E+009;1.805056482553482E-001;1.157286018133164E-002;-1.192675437778235E-003;-1.936643966473639E-003;
2.407500000000000E+009;1.800478547811508E-001;1.120292395353317E-002;-1.258487231098115E-003;-1.906646415591240E-003;
2.407666666666667E+009;1.794641464948654E-001;1.078189723193646E-002;-1.207777997478843E-003;-1.824653823859990E-003;
2.407833333333334E+009;1.787576377391815E-001;1.007967349141836E-002;-9.937484283000231E-004;-1.726731774397194E-003;
2.408000000000000E+009;1.781337559223175E-001;9.271413087844849E-003;-9.768621530383825E-004;-1.659096917137504E-003;
2.408166666666667E+009;1.774002164602280E-001;8.768303319811821E-003;-1.003783545456827E-003;-1.671719830483198E-003;
2.408333333333334E+009;1.767203956842423E-001;7.868834771215916E-003;-9.468811331316829E-004;-1.630582381039858E-003;
2.408500000000000E+009;1.758404225111008E-001;6.896976847201586E-003;-9.683613898232579E-004;-1.650835969485343E-003;
2.408666666666667E+009;1.750525385141373E-001;5.687032826244831E-003;-1.108561409637332E-003;-1.567775732837617E-003;
2.408833333333334E+009;1.741716712713242E-001;4.565153736621141E-003;-9.271435556001961E-004;-1.619007671251893E-003;
2.409000000000000E+009;1.732545942068100E-001;3.393863094970584E-003;-7.044199155643582E-004;-1.668198266997933E-003;
2.409166666666667E+009;1.724613308906555E-001;2.026209374889731E-003;-8.877927903085947E-004;-1.835608389228582E-003;
2.409333333333334E+009;1.718751341104507E-001;5.985734751448035E-004;-9.034675313159823E-004;-1.882963697426021E-003;
2.409500000000000E+009;1.708044260740280E-001;-1.257559866644442E-003;-7.496142643503845E-004;-1.731533091515303E-003;
2.409666666666667E+009;1.699299365282059E-001;-2.889239694923163E-003;-7.657766109332442E-004;-1.758003490976989E-003;
2.409833333333334E+009;1.690559983253479E-001;-4.508595447987318E-003;-7.924529490992427E-004;-1.852921675890684E-003;
2.410000000000000E+009;1.687627881765366E-001;-6.267896853387356E-003;-8.221697062253952E-004;-1.902631018310785E-003;
2.410166666666667E+009;1.679524034261704E-001;-8.160863071680069E-003;-9.045857004821301E-004;-1.851289882324636E-003;
2.410333333333334E+009;1.673981398344040E-001;-1.009164750576019E-002;-8.172253728844225E-004;-2.032874850556254E-003;
2.410500000000000E+009;1.668666303157806E-001;-1.217922661453486E-002;-9.544898639433086E-004;-2.042351290583611E-003;
2.410666666666667E+009;1.663259565830231E-001;-1.434967666864395E-002;-8.492046617902815E-004;-2.124456688761711E-003;
2.410833333333334E+009;1.661742627620697E-001;-1.612290181219578E-002;-9.863568702712655E-004;-2.065869281068444E-003;
2.411000000000000E+009;1.659574210643768E-001;-1.826518774032593E-002;-1.103206304833293E-003;-2.039410406723619E-003;
2.411166666666667E+009;1.655763089656830E-001;-2.039981819689274E-002;-1.142496592365205E-003;-2.028509741649032E-003;
2.411333333333334E+009;1.654641479253769E-001;-2.259852178394795E-002;-1.245578634552658E-003;-2.032450865954161E-003;
2.411500000000000E+009;1.655982434749603E-001;-2.491221204400063E-002;-1.372612197883427E-003;-2.174099907279015E-003;
2.411666666666667E+009;1.657370477914810E-001;-2.689585089683533E-002;-1.466475659981370E-003;-2.138309879228473E-003;
2.411833333333334E+009;1.659454703330994E-001;-2.897695265710354E-002;-1.626814133487642E-003;-1.952137448824942E-003;
2.412000000000000E+009;1.662107855081558E-001;-3.116815164685249E-002;-1.709942705929279E-003;-2.092186128720641E-003;
2.412166666666667E+009;1.664407849311829E-001;-3.311762586236000E-002;-1.749102724716067E-003;-1.951471203938127E-003;
2.412333333333334E+009;1.672814190387726E-001;-3.505139797925949E-002;-1.789083122275770E-003;-1.905233482830226E-003;
2.412500000000000E+009;1.674378663301468E-001;-3.689921647310257E-002;-1.934831379912794E-003;-1.918908557854593E-003;
2.412666666666667E+009;1.681210994720459E-001;-3.907687216997147E-002;-1.996819162741303E-003;-1.768116140738130E-003;
2.412833333333334E+009;1.689449101686478E-001;-4.085439071059227E-002;-2.178037539124489E-003;-1.784382155165076E-003;
2.413000000000000E+009;1.693724393844605E-001;-4.252216592431068E-002;-2.234529936686158E-003;-1.899631577543914E-003;
2.413166666666667E+009;1.701961606740952E-001;-4.413163289427757E-002;-2.439442090690136E-003;-1.691386452876031E-003;
2.413333333333334E+009;1.706570684909821E-001;-4.572365060448647E-002;-2.343467902392149E-003;-1.535606686957181E-003;
2.413500000000000E+009;1.716238260269165E-001;-4.723586514592171E-002;-2.485444536432624E-003;-1.431541284546256E-003;
2.413666666666667E+009;1.724944412708283E-001;-4.884070530533791E-002;-2.498652320355177E-003;-1.459604362025857E-003;
2.413833333333334E+009;1.731026321649551E-001;-4.991564899682999E-002;-2.421541605144739E-003;-1.426395727321506E-003;
2.414000000000000E+009;1.739828884601593E-001;-5.125960335135460E-002;-2.510973252356052E-003;-1.356852357275784E-003;
2.414166666666667E+009;1.747131794691086E-001;-5.235348269343376E-002;-2.602465916424990E-003;-1.211964408867061E-003;
2.414333333333334E+009;1.755015850067139E-001;-5.338108912110329E-002;-2.585005015134811E-003;-1.093788770958781E-003;
2.414500000000000E+009;1.763438880443573E-001;-5.424398556351662E-002;-2.638631267473102E-003;-1.010759850032628E-003;
2.414666666666667E+009;1.768863052129746E-001;-5.509134382009506E-002;-2.657148987054825E-003;-9.210670832544565E-004;
2.414833333333334E+009;1.774246841669083E-001;-5.585682764649391E-002;-2.689224667847157E-003;-7.950192666612566E-004;
2.415000000000000E+009;1.779719144105911E-001;-5.630354955792427E-002;-2.617157762870193E-003;-6.590232951566577E-004;
2.415166666666667E+009;1.783362776041031E-001;-5.678473785519600E-002;-2.471078652888537E-003;-8.165987674146891E-004;
2.415333333333334E+009;1.789251863956451E-001;-5.733413994312286E-002;-2.650634618476033E-003;-5.613532848656178E-004;
2.415500000000000E+009;1.793113350868225E-001;-5.754955112934113E-002;-2.680901903659105E-003;-6.244309479370713E-004;
2.415666666666667E+009;1.794194132089615E-001;-5.782543495297432E-002;-2.383710350841284E-003;-4.274906823411584E-004;
2.415833333333334E+009;1.796595305204392E-001;-5.815922468900681E-002;-2.617867663502693E-003;-4.084581451024860E-004;
2.416000000000000E+009;1.795646846294403E-001;-5.829235911369324E-002;-2.498712856322527E-003;-2.662455663084984E-004;
2.416166666666667E+009;1.796909421682358E-001;-5.835688859224320E-002;-2.512187464162707E-003;-1.455022575100884E-004;
2.416333333333334E+009;1.794832348823547E-001;-5.834283307194710E-002;-2.557146362960339E-003;-2.005592541536316E-004;
2.416500000000000E+009;1.791173964738846E-001;-5.853163823485375E-002;-2.443331526592374E-003;-1.285407779505476E-004;
2.416666666666667E+009;1.788638979196549E-001;-5.854247137904167E-002;-2.592976437881589E-003;-8.056315709836781E-005;
2.416833333333334E+009;1.785584837198257E-001;-5.875666439533234E-002;-2.511725062504411E-003;1.038727568811737E-004;
2.417000000000000E+009;1.776304244995117E-001;-5.879390984773636E-002;-2.621761988848448E-003;3.903650940628722E-005;
2.417166666666667E+009;1.771221607923508E-001;-5.868016183376312E-002;-2.436185022816062E-003;1.663606381043792E-004;
2.417333333333334E+009;1.763928681612015E-001;-5.870356038212776E-002;-2.586759394034743E-003;1.347015640931204E-004;
2.417500000000000E+009;1.755015105009079E-001;-5.904193222522736E-002;-2.452929969877005E-003;3.083409101236612E-004;
2.417666666666667E+009;1.746232956647873E-001;-5.904147401452065E-002;-2.396211959421635E-003;3.135000588372350E-004;
2.417833333333334E+009;1.735386252403259E-001;-5.926338955760002E-002;-2.623945241793990E-003;3.292762266937643E-004;
2.418000000000000E+009;1.723130047321320E-001;-5.965848267078400E-002;-2.519856439903379E-003;4.850071563851088E-004;
2.418166666666667E+009;1.709995120763779E-001;-5.985205993056297E-002;-2.356376731768251E-003;3.974507562816143E-004;
2.418333333333334E+009;1.700574606657028E-001;-6.041401624679565E-002;-2.461228985339403E-003;3.258178476244211E-004;
2.418500000000000E+009;1.685227155685425E-001;-6.082631647586823E-002;-2.214151900261641E-003;5.952022620476782E-004;
2.418666666666667E+009;1.672961711883545E-001;-6.156918033957481E-002;-2.317827427759767E-003;7.057306356728077E-004;
2.418833333333334E+009;1.658062189817429E-001;-6.208438426256180E-002;-2.316429512575269E-003;7.008301327005029E-004;
2.419000000000000E+009;1.642272621393204E-001;-6.278298050165176E-002;-2.280553802847862E-003;6.198149058036506E-004;
2.419166666666667E+009;1.629374772310257E-001;-6.367958337068558E-002;-2.364281332120299E-003;5.262641352601349E-004;
2.419333333333334E+009;1.614955067634583E-001;-6.428319960832596E-002;-2.228728728368878E-003;6.416057585738599E-004;
2.419500000000000E+009;1.601229608058929E-001;-6.563703715801239E-002;-2.329489914700389E-003;6.251736194826663E-004;
2.419666666666667E+009;1.589257270097733E-001;-6.666847318410873E-002;-2.415410475805402E-003;7.114898180589080E-004;
2.419833333333334E+009;1.574706882238388E-001;-6.774359196424484E-002;-2.269658027216792E-003;7.211902993731201E-004;
2.420000000000000E+009;1.562660783529282E-001;-6.909234821796417E-002;-2.201597206294537E-003;7.364343036897481E-004;
2.420166666666667E+009;1.551693826913834E-001;-7.046300172805786E-002;-2.167112892493606E-003;7.546161650680006E-004;
2.420333333333334E+009;1.539269238710403E-001;-7.185301929712296E-002;-2.165016019716859E-003;9.623990627005696E-004;
2.420500000000000E+009;1.529369354248047E-001;-7.313760370016098E-002;-2.171382773667574E-003;8.495274232700467E-004;
2.420666666666667E+009;1.519882977008820E-001;-7.497071474790573E-002;-2.216456923633814E-003;9.178471518680453E-004;
2.420833333333334E+009;1.511202454566956E-001;-7.654058933258057E-002;-2.217513043433428E-003;9.473509853705764E-004;
2.421000000000000E+009;1.502213627099991E-001;-7.818868011236191E-002;-2.286066068336368E-003;8.422548999078572E-004;
2.421166666666667E+009;1.496543288230896E-001;-7.994187623262405E-002;-2.371200127527118E-003;1.014970592223108E-003;
2.421333333333334E+009;1.488978564739227E-001;-8.178168535232544E-002;-2.315793419256806E-003;1.083527109585702E-003;
2.421500000000000E+009;1.484285444021225E-001;-8.362558484077454E-002;-2.325239824131131E-003;9.817311074584723E-004;
2.421666666666667E+009;1.481925398111343E-001;-8.536873757839203E-002;-2.553752390667796E-003;1.215888536535204E-003;
2.421833333333334E+009;1.478035897016525E-001;-8.717392385005951E-002;-2.382937585934997E-003;1.256004208698869E-003;
2.422000000000000E+009;1.475273072719574E-001;-8.906474709510803E-002;-2.427879488095641E-003;1.489700167439878E-003;
2.422166666666667E+009;1.476973295211792E-001;-9.115000814199448E-002;-2.487232675775886E-003;1.442702836357057E-003;
2.422333333333334E+009;1.476840674877167E-001;-9.275979548692703E-002;-2.601863583549857E-003;1.472549978643656E-003;
2.422500000000000E+009;1.477722376585007E-001;-9.461817890405655E-002;-2.381222555413842E-003;1.592307584360242E-003;
2.422666666666667E+009;1.477390974760056E-001;-9.627652168273926E-002;-2.476813504472375E-003;1.748695503920317E-003;
2.422833333333334E+009;1.482439041137695E-001;-9.816624224185944E-002;-2.257241168990731E-003;1.881488831713796E-003;
2.423000000000000E+009;1.486038714647293E-001;-9.981078654527664E-002;-2.407090272754431E-003;2.057573292404413E-003;
2.423166666666667E+009;1.491001546382904E-001;-1.015568003058434E-001;-2.190273487940431E-003;2.103134291246533E-003;
2.423333333333334E+009;1.496239453554153E-001;-1.027717962861061E-001;-2.193735679611564E-003;2.288438146933913E-003;
2.423500000000000E+009;1.502254307270050E-001;-1.044969484210014E-001;-2.138125011697412E-003;2.362124156206846E-003;
2.423666666666667E+009;1.507736444473267E-001;-1.059362441301346E-001;-2.113029826432467E-003;2.519806614145637E-003;
2.423833333333334E+009;1.514797806739807E-001;-1.073502451181412E-001;-1.980872591957450E-003;2.533917082473636E-003;
2.424000000000000E+009;1.518500298261643E-001;-1.083967760205269E-001;-1.721961656585336E-003;2.626028144732118E-003;
2.424166666666667E+009;1.526278853416443E-001;-1.096469759941101E-001;-1.745902001857758E-003;2.862934023141861E-003;
2.424333333333334E+009;1.534001678228378E-001;-1.106938719749451E-001;-1.652618986554444E-003;2.880718326196075E-003;
2.424500000000000E+009;1.541325151920319E-001;-1.117487251758575E-001;-1.584217883646488E-003;3.050880972296000E-003;
2.424666666666667E+009;1.548100262880325E-001;-1.124958992004395E-001;-1.439857762306929E-003;2.970986999571323E-003;
2.424833333333334E+009;1.552891731262207E-001;-1.133599951863289E-001;-1.140520675107837E-003;3.069568425416946E-003;
2.425000000000000E+009;1.559648811817169E-001;-1.141001731157303E-001;-9.748291340656579E-004;3.036659676581621E-003;
2.425166666666667E+009;1.562105119228363E-001;-1.147158667445183E-001;-9.135955478996038E-004;3.132483689114451E-003;
2.425333333333334E+009;1.569130718708038E-001;-1.152019500732422E-001;-7.856450974941254E-004;3.218026133254170E-003;
2.425500000000000E+009;1.574372649192810E-001;-1.157934665679932E-001;-7.374250562861562E-004;3.169945441186428E-003;
2.425666666666667E+009;1.574652493000031E-001;-1.162362024188042E-001;-6.359909893944860E-004;3.191570751369000E-003;
2.425833333333334E+009;1.579618602991104E-001;-1.165103465318680E-001;-4.072352894581854E-004;3.054818138480187E-003;
2.426000000000000E+009;1.580952405929565E-001;-1.168021634221077E-001;-4.479721246752888E-004;3.129548626020551E-003;
2.426166666666667E+009;1.582549959421158E-001;-1.170907020568848E-001;-1.777675206540152E-004;3.077985486015678E-003;
2.426333333333334E+009;1.581831872463226E-001;-1.170792132616043E-001;-7.626671867910773E-005;2.995502902194858E-003;
2.426500000000000E+009;1.581275612115860E-001;-1.171560809016228E-001;-3.802626451943070E-005;3.026153892278671E-003;
2.426666666666667E+009;1.580218672752380E-001;-1.170113980770111E-001;-1.337890921604412E-006;3.060914808884263E-003;
2.426833333333334E+009;1.575521975755692E-001;-1.172289103269577E-001;1.801932667149231E-004;3.002412850037217E-003;
2.427000000000000E+009;1.571366339921951E-001;-1.173204034566879E-001;2.157262788387016E-004;2.995003946125507E-003;
2.427166666666667E+009;1.565960794687271E-001;-1.170385926961899E-001;4.255474195815623E-004;2.985429484397173E-003;
2.427333333333334E+009;1.558869630098343E-001;-1.170648038387299E-001;5.374872125685215E-004;2.890115603804588E-003;
2.427500000000000E+009;1.552417427301407E-001;-1.170172542333603E-001;5.093562067486346E-004;2.861547516658902E-003;
2.427666666666667E+009;1.542971283197403E-001;-1.171097531914711E-001;6.938339211046696E-004;2.845807233825326E-003;
