# Version 1.00
#
freq[Hz];re:Trc1_S11;im:Trc1_S11;re:Trc2_S21;im:Trc2_S21;
2.400000000000000E+009;1.546861380338669E-001;6.141107156872749E-002;3.290947992354631E-003;-2.332124626263976E-003;
2.400166666666667E+009;1.546447724103928E-001;5.961055681109428E-002;3.165277885273099E-003;-2.563004614785314E-003;
2.400333333333334E+009;1.547091454267502E-001;5.726036801934242E-002;3.061597933992744E-003;-2.825506497174501E-003;
2.400500000000000E+009;1.547998338937759E-001;5.510654300451279E-002;2.979749348014593E-003;-2.704569837078452E-003;
2.400666666666667E+009;1.549928486347199E-001;5.275979638099670E-002;2.805080031976104E-003;-2.965451451018453E-003;
2.400833333333334E+009;1.553574502468109E-001;5.069250613451004E-002;2.758901100605726E-003;-2.854347927495837E-003;
2.401000000000000E+009;1.556653231382370E-001;4.826590418815613E-002;2.697988646104932E-003;-2.996086375787854E-003;
2.401166666666667E+009;1.561520397663117E-001;4.604312032461166E-002;2.572688274085522E-003;-3.184080123901367E-003;
2.401333333333334E+009;1.563406586647034E-001;4.378737881779671E-002;2.391368849202991E-003;-3.226051339879632E-003;
2.401500000000000E+009;1.571154445409775E-001;4.161082208156586E-002;2.489251084625721E-003;-3.288571955636144E-003;
2.401666666666667E+009;1.577237099409103E-001;3.966024890542030E-002;2.166352001950145E-003;-3.403277602046728E-003;
2.401833333333334E+009;1.582916975021362E-001;3.733085840940476E-002;2.355136908590794E-003;-3.549817716702819E-003;
2.402000000000000E+009;1.590079367160797E-001;3.549922257661820E-002;2.046101028099656E-003;-3.611107822507620E-003;
2.402166666666667E+009;1.598896682262421E-001;3.316107392311096E-002;1.913475571200252E-003;-3.703556256368756E-003;
2.402333333333334E+009;1.605165898799896E-001;3.141376376152039E-002;1.799176679924130E-003;-3.734099911525846E-003;
2.402500000000000E+009;1.617998331785202E-001;2.954780310392380E-002;1.544761005789042E-003;-3.757706843316555E-003;
2.402666666666667E+009;1.625878363847733E-001;2.800135314464569E-002;1.493118936195970E-003;-3.893426619470120E-003;
2.402833333333334E+009;1.637289226055145E-001;2.632437460124493E-002;1.121849636547267E-003;-3.855239832773805E-003;
2.403000000000000E+009;1.648176461458206E-001;2.491022646427155E-002;1.144407200627029E-003;-3.688461845740676E-003;
2.403166666666667E+009;1.660229265689850E-001;2.343253232538700E-002;9.068091167137027E-004;-3.913537599146366E-003;
2.403333333333334E+009;1.670742034912109E-001;2.209520526230335E-002;8.222493925131857E-004;-3.917678259313107E-003;
2.403500000000000E+009;1.682083010673523E-001;2.086231112480164E-002;6.053571705706418E-004;-3.932438325136900E-003;
2.403666666666667E+009;1.695307046175003E-001;1.964489184319973E-002;4.083401872776449E-004;-3.959905821830034E-003;
2.403833333333334E+009;1.705942302942276E-001;1.869213208556175E-002;1.564782869536430E-004;-3.709572833031416E-003;
2.404000000000000E+009;1.715393662452698E-001;1.782394200563431E-002;1.289091160288081E-004;-3.844645572826266E-003;
2.404166666666667E+009;1.727744489908218E-001;1.697233878076077E-002;-2.514719963073731E-004;-3.825108520686626E-003;
2.404333333333334E+009;1.736887097358704E-001;1.626885309815407E-002;-1.613708300283179E-004;-3.750098403543234E-003;
2.404500000000000E+009;1.746066510677338E-001;1.554564852267504E-002;-4.385783104225993E-004;-3.625128883868456E-003;
2.404666666666667E+009;1.758591979742050E-001;1.513711176812649E-002;-4.811809631064534E-004;-3.555233357474208E-003;
2.404833333333334E+009;1.766555458307266E-001;1.448178477585316E-002;-6.621108041144908E-004;-3.472975455224514E-003;
2.405000000000000E+009;1.776092499494553E-001;1.412055362015963E-002;-7.682446157559753E-004;-3.370944643393159E-003;
2.405166666666667E+009;1.782683134078980E-001;1.373846642673016E-002;-6.935060373507440E-004;-3.391898237168789E-003;
2.405333333333334E+009;1.791305541992188E-001;1.350254751741886E-002;-9.095069253817201E-004;-3.338478738442063E-003;
2.405500000000000E+009;1.796754598617554E-001;1.328758243471384E-002;-9.199723717756569E-004;-3.114877035841346E-003;
2.405666666666667E+009;1.802391707897186E-001;1.312429830431938E-002;-1.256256480701268E-003;-3.024163423106074E-003;
2.405833333333334E+009;1.805895864963532E-001;1.325756870210171E-002;-1.133199199102819E-003;-2.949040615931153E-003;
2.406000000000000E+009;1.810459047555924E-001;1.285530906170607E-002;-1.385982846841216E-003;-2.741577336564660E-003;
2.406166666666667E+009;1.811474412679672E-001;1.295754872262478E-002;-1.339154667221010E-003;-2.692592795938253E-003;
2.406333333333334E+009;1.814786195755005E-001;1.284705940634012E-002;-1.111651887185872E-003;-2.523447386920452E-003;
2.406500000000000E+009;1.814479082822800E-001;1.253717951476574E-002;-1.519562792964280E-003;-2.343019936233759E-003;
2.406666666666667E+009;1.813406348228455E-001;1.252216659486294E-002;-1.437921077013016E-003;-2.153170527890325E-003;
2.406833333333334E+009;1.813966929912567E-001;1.237076427787542E-002;-1.524065854027867E-003;-2.057206584140658E-003;
2.407000000000000E+009;1.810882091522217E-001;1.219817157834768E-002;-1.245023217052221E-003;-2.059663180261850E-003;
2.407166666666667E+009;1.810448616743088E-001;1.193009410053492E-002;-1.294991117902100E-003;-1.884510740637779E-003;
2.407333333333334E+009;1.804342418909073E-001;1.149929873645306E-002;-1.322426483966410E-003;-1.953543396666646E-003;
2.407500000000000E+009;1.799275279045105E-001;1.111548766493797E-002;-1.320404349826276E-003;-1.946723205037415E-003;
2.407666666666667E+009;1.794765889644623E-001;1.065744645893574E-002;-1.281861797906458E-003;-1.742089632898569E-003;
2.407833333333334E+009;1.787019073963165E-001;9.981634095311165E-003;-1.149798976257443E-003;-1.658599358052015E-003;
2.408000000000000E+009;1.780974715948105E-001;9.196616709232330E-003;-9.717406937852502E-004;-1.707458752207458E-003;
2.408166666666667E+009;1.773954331874847E-001;8.598387241363525E-003;-1.088656019419432E-003;-1.618714770302177E-003;
2.408333333333334E+009;1.768479943275452E-001;7.770871277898550E-003;-9.868300985544920E-004;-1.755302771925926E-003;
2.408500000000000E+009;1.759162694215775E-001;6.741936318576336E-003;-9.996258886530995E-004;-1.568471896462143E-003;
2.408666666666667E+009;1.749960929155350E-001;5.653207190334797E-003;-9.396519162692130E-004;-1.595419598743320E-003;
2.408833333333334E+009;1.741947382688522E-001;4.539760760962963E-003;-8.625669870525599E-004;-1.709418604150415E-003;
2.409000000000000E+009;1.732764989137650E-001;3.281340934336186E-003;-9.110344108194113E-004;-1.692940131761134E-003;
2.409166666666667E+009;1.723849773406982E-001;1.774579635821283E-003;-7.248048204928637E-004;-1.773423748090863E-003;
2.409333333333334E+009;1.717139482498169E-001;4.384802887216210E-004;-7.496729958802462E-004;-1.721043256111443E-003;
2.409500000000000E+009;1.706736534833908E-001;-1.148109440691769E-003;-7.919991039671004E-004;-1.782192499376833E-003;
2.409666666666667E+009;1.700160652399063E-001;-2.842850517481566E-003;-9.122798219323158E-004;-1.789370900951326E-003;
2.409833333333334E+009;1.691357493400574E-001;-4.516209941357374E-003;-6.667982088401914E-004;-1.856064307503402E-003;
2.410000000000000E+009;1.686911135911942E-001;-6.309439428150654E-003;-8.218354778364301E-004;-1.906631630845368E-003;
2.410166666666667E+009;1.679047048091888E-001;-8.061143569648266E-003;-7.709179772064090E-004;-1.901762909255922E-003;
2.410333333333334E+009;1.673263609409332E-001;-1.008675340563059E-002;-7.987421704456210E-004;-1.980964560061693E-003;
2.410500000000000E+009;1.669015139341354E-001;-1.212722621858120E-002;-9.976747678592801E-004;-2.085228683426976E-003;
2.410666666666667E+009;1.663801074028015E-001;-1.429177075624466E-002;-1.044118893332779E-003;-2.079185098409653E-003;
2.410833333333334E+009;1.661319583654404E-001;-1.614402234554291E-002;-9.855993557721376E-004;-2.088076202198863E-003;
2.411000000000000E+009;1.658098399639130E-001;-1.838338188827038E-002;-1.162423170171678E-003;-2.203563228249550E-003;
2.411166666666667E+009;1.658774316310883E-001;-2.042634785175324E-002;-1.296251779422164E-003;-2.162699121981859E-003;
2.411333333333334E+009;1.655775755643845E-001;-2.267968654632568E-002;-1.366712618619204E-003;-2.109927590936422E-003;
2.411500000000000E+009;1.653556227684021E-001;-2.471887134015560E-002;-1.419107080437243E-003;-2.127741463482380E-003;
2.411666666666667E+009;1.657056659460068E-001;-2.689894661307335E-002;-1.501307589933276E-003;-2.101652091369033E-003;
2.411833333333334E+009;1.659479290246964E-001;-2.895051240921021E-002;-1.633848412893713E-003;-2.007263945415616E-003;
2.412000000000000E+009;1.662845909595490E-001;-3.114632517099381E-002;-1.688498770818114E-003;-2.170983469113708E-003;
2.412166666666667E+009;1.664768606424332E-001;-3.295442834496498E-002;-1.635074615478516E-003;-1.992619130760431E-003;
2.412333333333334E+009;1.672662794589996E-001;-3.496829420328140E-002;-1.793923205696046E-003;-1.964423805475235E-003;
2.412500000000000E+009;1.677130013704300E-001;-3.689986094832420E-002;-1.877804985269904E-003;-1.825133571401238E-003;
2.412666666666667E+009;1.682268530130386E-001;-3.900354728102684E-002;-2.042096806690097E-003;-1.770909642800689E-003;
2.412833333333334E+009;1.688327640295029E-001;-4.070113226771355E-002;-2.239307854324579E-003;-1.866728183813393E-003;
2.413000000000000E+009;1.694927811622620E-001;-4.261755198240280E-002;-2.202666830271483E-003;-1.814717310480773E-003;
2.413166666666667E+009;1.702095717191696E-001;-4.408463835716248E-002;-2.278226427733898E-003;-1.711571938358247E-003;
2.413333333333334E+009;1.709502190351486E-001;-4.589950293302536E-002;-2.435293979942799E-003;-1.626110402867198E-003;
2.413500000000000E+009;1.717870682477951E-001;-4.735367000102997E-002;-2.392694354057312E-003;-1.528773223981261E-003;
2.413666666666667E+009;1.724886596202850E-001;-4.877360165119171E-002;-2.493158215656877E-003;-1.554821734316647E-003;
2.413833333333334E+009;1.732675135135651E-001;-5.004299059510231E-002;-2.452919492498040E-003;-1.182303647510707E-003;
2.414000000000000E+009;1.739493757486343E-001;-5.135332792997360E-002;-2.411253750324249E-003;-1.196841243654490E-003;
2.414166666666667E+009;1.748411655426025E-001;-5.232697352766991E-002;-2.408919623121619E-003;-1.168343005701900E-003;
2.414333333333334E+009;1.754672378301621E-001;-5.347059294581413E-002;-2.535805571824312E-003;-1.055339002050459E-003;
2.414500000000000E+009;1.764057427644730E-001;-5.429452657699585E-002;-2.619062550365925E-003;-8.993120864033699E-004;
2.414666666666667E+009;1.770886927843094E-001;-5.502878129482269E-002;-2.439511939883232E-003;-1.003790879622102E-003;
2.414833333333334E+009;1.774847656488419E-001;-5.589405074715614E-002;-2.559742890298367E-003;-8.899811655282974E-004;
2.415000000000000E+009;1.780415475368500E-001;-5.639763176441193E-002;-2.662536455318332E-003;-5.968722398392856E-004;
2.415166666666667E+009;1.785257160663605E-001;-5.688228830695152E-002;-2.638183534145355E-003;-7.853793795220554E-004;
2.415333333333334E+009;1.790146976709366E-001;-5.747240036725998E-002;-2.506381133571267E-003;-6.024603499099612E-004;
2.415500000000000E+009;1.794250905513763E-001;-5.770755186676979E-002;-2.620213897898793E-003;-4.924554377794266E-004;
2.415666666666667E+009;1.795064508914948E-001;-5.789371207356453E-002;-2.702443161979318E-003;-4.459469346329570E-004;
2.415833333333334E+009;1.797503083944321E-001;-5.805526673793793E-002;-2.618808764964342E-003;-2.643869083840400E-004;
2.416000000000000E+009;1.797192096710205E-001;-5.829207971692085E-002;-2.539198612794280E-003;-3.735433274414390E-004;
2.416166666666667E+009;1.798628717660904E-001;-5.834755674004555E-002;-2.509976970031858E-003;-2.824525290634483E-004;
2.416333333333334E+009;1.795530468225479E-001;-5.836055800318718E-002;-2.601777669042349E-003;-1.689981581876054E-004;
2.416500000000000E+009;1.793790757656097E-001;-5.855913087725639E-002;-2.662292914465070E-003;-2.352855663048104E-004;
2.416666666666667E+009;1.788452714681625E-001;-5.848098546266556E-002;-2.495530294254422E-003;-5.736921229981817E-005;
2.416833333333334E+009;1.784829795360565E-001;-5.877162143588066E-002;-2.658677054569125E-003;-6.849093097116565E-006;
2.417000000000000E+009;1.778228580951691E-001;-5.872418358922005E-002;-2.607374684885144E-003;3.689096411108039E-005;
2.417166666666667E+009;1.771741211414337E-001;-5.874601006507874E-002;-2.472223015502095E-003;2.306447568116710E-004;
2.417333333333334E+009;1.764912456274033E-001;-5.872309952974320E-002;-2.406367799267173E-003;1.603772980161011E-004;
2.417500000000000E+009;1.754099428653717E-001;-5.906690657138825E-002;-2.418650779873133E-003;3.170026466250420E-004;
2.417666666666667E+009;1.746299266815186E-001;-5.911234766244888E-002;-2.580438507720828E-003;2.077552489936352E-004;
2.417833333333334E+009;1.735254377126694E-001;-5.928024277091026E-002;-2.321380423381925E-003;2.571300428826362E-004;
2.418000000000000E+009;1.722703874111176E-001;-5.966477096080780E-002;-2.499685622751713E-003;4.478802147787064E-004;
2.418166666666667E+009;1.711093485355377E-001;-5.991703271865845E-002;-2.446875441819429E-003;4.224615404382348E-004;
2.418333333333334E+009;1.700567901134491E-001;-6.033859029412270E-002;-2.403321443125606E-003;5.587987834587693E-004;
2.418500000000000E+009;1.686171293258667E-001;-6.075648963451386E-002;-2.298878272995353E-003;5.155337858013809E-004;
2.418666666666667E+009;1.673515737056732E-001;-6.128233298659325E-002;-2.351276576519013E-003;6.020559812895954E-004;
2.418833333333334E+009;1.658827811479569E-001;-6.209798529744148E-002;-2.416833769530058E-003;5.733259604312480E-004;
2.419000000000000E+009;1.644168347120285E-001;-6.265084445476532E-002;-2.355848904699087E-003;5.533030489459634E-004;
2.419166666666667E+009;1.629657149314880E-001;-6.365961581468582E-002;-2.322774846106768E-003;6.671981536783278E-004;
2.419333333333334E+009;1.613151282072067E-001;-6.424254924058914E-002;-2.320080064237118E-003;5.540975253097713E-004;
2.419500000000000E+009;1.602611243724823E-001;-6.551311165094376E-002;-2.180409152060747E-003;6.996548618189991E-004;
2.419666666666667E+009;1.590892821550369E-001;-6.675824522972107E-002;-2.271235454827547E-003;8.945183944888413E-004;
2.419833333333334E+009;1.574734002351761E-001;-6.766504049301148E-002;-2.193349180743098E-003;5.335642490535975E-004;
2.420000000000000E+009;1.563782691955566E-001;-6.913290172815323E-002;-2.242074348032475E-003;7.845013751648367E-004;
2.420166666666667E+009;1.550596505403519E-001;-7.031089067459106E-002;-2.203712938353419E-003;8.882235852070153E-004;
2.420333333333334E+009;1.539634913206101E-001;-7.186156511306763E-002;-2.194953616708517E-003;9.015448158606887E-004;
2.420500000000000E+009;1.530082225799561E-001;-7.323455065488815E-002;-2.336828503757715E-003;9.546571527607739E-004;
2.420666666666667E+009;1.518529653549194E-001;-7.476115226745606E-002;-2.343074185773730E-003;7.655878434889019E-004;
2.420833333333334E+009;1.511211693286896E-001;-7.642875611782074E-002;-2.383704995736480E-003;9.532263502478600E-004;
2.421000000000000E+009;1.502093076705933E-001;-7.835453003644943E-002;-2.450496191158891E-003;1.047093537636101E-003;
2.421166666666667E+009;1.496129930019379E-001;-7.988122850656509E-002;-2.267872914671898E-003;1.011968473903835E-003;
2.421333333333334E+009;1.491450667381287E-001;-8.171861618757248E-002;-2.493753330782056E-003;1.011049607768655E-003;
2.421500000000000E+009;1.484666466712952E-001;-8.357080817222595E-002;-2.287870971485972E-003;1.248290762305260E-003;
2.421666666666667E+009;1.482710689306259E-001;-8.531282842159271E-002;-2.368798479437828E-003;1.218653051182628E-003;
2.421833333333334E+009;1.479776203632355E-001;-8.708903193473816E-002;-2.580757951363921E-003;1.325437217019498E-003;
2.422000000000000E+009;1.476874202489853E-001;-8.917375653982163E-002;-2.431978238746524E-003;1.300583477132022E-003;
2.422166666666667E+009;1.475897878408432E-001;-9.099449962377548E-002;-2.416136441752315E-003;1.377510372549295E-003;
2.422333333333334E+009;1.477837413549423E-001;-9.281712025403976E-002;-2.400185214355588E-003;1.572530949488282E-003;
2.422500000000000E+009;1.480160802602768E-001;-9.450484812259674E-002;-2.351605566218495E-003;1.721628592349589E-003;
2.422666666666667E+009;1.479072123765945E-001;-9.647000581026077E-002;-2.517012646421790E-003;1.803016406483948E-003;
2.422833333333334E+009;1.484990864992142E-001;-9.817063063383102E-002;-2.499018562957645E-003;1.995255472138524E-003;
2.423000000000000E+009;1.487651318311691E-001;-9.984888881444931E-002;-2.221728907898068E-003;2.061271108686924E-003;
2.423166666666667E+009;1.492840349674225E-001;-1.013922691345215E-001;-2.417853567749262E-003;2.151026157662273E-003;
2.423333333333334E+009;1.498003154993057E-001;-1.028519719839096E-001;-2.135762711986899E-003;2.183116273954511E-003;
2.423500000000000E+009;1.502274721860886E-001;-1.044881269335747E-001;-2.071499358862639E-003;2.570882439613342E-003;
2.423666666666667E+009;1.507576704025269E-001;-1.062130406498909E-001;-2.251520752906799E-003;2.646659268066287E-003;
2.423833333333334E+009;1.516956239938736E-001;-1.073805168271065E-001;-2.158678369596601E-003;2.686528256163001E-003;
2.424000000000000E+009;1.519968658685684E-001;-1.086107939481735E-001;-1.812171889469028E-003;2.697959775105119E-003;
2.424166666666667E+009;1.525616049766541E-001;-1.098467186093330E-001;-1.691933488473296E-003;2.802753588184714E-003;
2.424333333333334E+009;1.533517092466354E-001;-1.107783168554306E-001;-1.525513245724142E-003;2.979142591357231E-003;
2.424500000000000E+009;1.542186439037323E-001;-1.118977144360542E-001;-1.470907474868000E-003;2.997779520228505E-003;
2.424666666666667E+009;1.548226922750473E-001;-1.126173734664917E-001;-1.439670682884753E-003;3.134108847007155E-003;
2.424833333333334E+009;1.552273482084274E-001;-1.134990379214287E-001;-1.124426140449941E-003;3.071753075346351E-003;
2.425000000000000E+009;1.560548841953278E-001;-1.142599508166313E-001;-1.097712316550314E-003;3.213552059605718E-003;
2.425166666666667E+009;1.562567055225372E-001;-1.148278415203095E-001;-9.521535830572248E-004;3.230017842724919E-003;
2.425333333333334E+009;1.568993777036667E-001;-1.154338419437408E-001;-7.609025342389941E-004;3.219293896108866E-003;
2.425500000000000E+009;1.574202924966812E-001;-1.159447878599167E-001;-5.545122548937798E-004;3.222155617550015E-003;
2.425666666666667E+009;1.576514989137650E-001;-1.162764206528664E-001;-5.673090927302837E-004;3.196313045918942E-003;
2.425833333333334E+009;1.578528285026550E-001;-1.165184378623962E-001;-4.624994180630893E-004;3.059668233618140E-003;
2.426000000000000E+009;1.579982340335846E-001;-1.168532669544220E-001;-3.558753232937306E-004;3.154264995828271E-003;
2.426166666666667E+009;1.582013964653015E-001;-1.171276345849037E-001;-2.607402275316417E-004;3.213327610865235E-003;
2.426333333333334E+009;1.580872684717178E-001;-1.172018125653267E-001;-2.392106252955273E-004;3.073787549510598E-003;
2.426500000000000E+009;1.580861806869507E-001;-1.172328293323517E-001;-1.945574467754341E-006;3.106068586930633E-003;
2.426666666666667E+009;1.580316275358200E-001;-1.171063855290413E-001;6.123947969172150E-005;3.154871053993702E-003;
2.426833333333334E+009;1.575976759195328E-001;-1.171351745724678E-001;1.950627483893186E-004;3.070163307711482E-003;
2.427000000000000E+009;1.571673452854157E-001;-1.172520518302918E-001;2.788988931570202E-004;3.041549120098352E-003;
2.427166666666667E+009;1.566111594438553E-001;-1.170090585947037E-001;4.657830577343702E-004;3.064968856051564E-003;
2.427333333333334E+009;1.558818072080612E-001;-1.171341836452484E-001;5.247775698080659E-004;3.039712784811854E-003;
2.427500000000000E+009;1.552579402923584E-001;-1.170510500669479E-001;6.472125533036888E-004;2.850039163604379E-003;
2.427666666666667E+009;1.543567329645157E-001;-1.171127930283546E-001;8.120964048430324E-004;2.931894734501839E-003;
