# Version 1.00
#
freq[Hz];re:Trc1_S11;im:Trc1_S11;re:Trc2_S21;im:Trc2_S21;
2.400000000000000E+009;1.546169817447662E-001;6.135822460055351E-002;3.117913845926523E-003;-2.385698724538088E-003;
2.400166666666667E+009;1.545252650976181E-001;5.953041836619377E-002;3.086894750595093E-003;-2.460263669490814E-003;
2.400333333333334E+009;1.546006202697754E-001;5.717320367693901E-002;2.998264040797949E-003;-2.739220624789596E-003;
2.400500000000000E+009;1.547465920448303E-001;5.503004416823387E-002;2.908283378928900E-003;-2.805005991831422E-003;
2.400666666666667E+009;1.549960821866989E-001;5.270320177078247E-002;2.856755163520575E-003;-2.837926382198930E-003;
2.400833333333334E+009;1.553050130605698E-001;5.067565664649010E-002;2.720160409808159E-003;-3.031108761206269E-003;
2.401000000000000E+009;1.557304263114929E-001;4.819737002253532E-002;2.763805910944939E-003;-3.064949763938785E-003;
2.401166666666667E+009;1.560072302818298E-001;4.604875668883324E-002;2.622576197609305E-003;-3.095595398917794E-003;
2.401333333333334E+009;1.565199643373489E-001;4.365058243274689E-002;2.223136834800243E-003;-3.275850089266896E-003;
2.401500000000000E+009;1.572454422712326E-001;4.171198606491089E-002;2.442693104967475E-003;-3.358806250616908E-003;
2.401666666666667E+009;1.576619446277618E-001;3.945343568921089E-002;2.190165221691132E-003;-3.447032533586025E-003;
2.401833333333334E+009;1.583693325519562E-001;3.740613535046578E-002;2.084398875012994E-003;-3.323442768305540E-003;
2.402000000000000E+009;1.589267998933792E-001;3.529758751392365E-002;1.940988120622933E-003;-3.683542134240270E-003;
2.402166666666667E+009;1.599152833223343E-001;3.307469189167023E-002;1.993727870285511E-003;-3.698088228702545E-003;
2.402333333333334E+009;1.607667058706284E-001;3.136283159255981E-002;1.570241875015199E-003;-3.815160831436515E-003;
2.402500000000000E+009;1.619569361209869E-001;2.946404553949833E-002;1.533000264316797E-003;-3.833389841020107E-003;
2.402666666666667E+009;1.627285331487656E-001;2.790323831140995E-002;1.335690962150693E-003;-3.974494058638811E-003;
2.402833333333334E+009;1.637568920850754E-001;2.628820389509201E-002;1.027646474540234E-003;-3.918719943612814E-003;
2.403000000000000E+009;1.648940593004227E-001;2.492592670023441E-002;1.135016325861216E-003;-3.849779022857547E-003;
2.403166666666667E+009;1.660308837890625E-001;2.333907224237919E-002;9.215756435878575E-004;-3.690800163894892E-003;
2.403333333333334E+009;1.671760231256485E-001;2.206016331911087E-002;7.044050726108253E-004;-3.884864971041679E-003;
2.403500000000000E+009;1.680884510278702E-001;2.098520658910275E-002;5.749628180637956E-004;-3.916081972420216E-003;
2.403666666666667E+009;1.692664474248886E-001;1.965765841305256E-002;4.815848078578711E-004;-3.888275241479278E-003;
2.403833333333334E+009;1.705503612756729E-001;1.880802586674690E-002;1.438624603906646E-004;-3.925483208149672E-003;
2.404000000000000E+009;1.715654283761978E-001;1.770628802478313E-002;-3.976984589826316E-005;-3.836042480543256E-003;
2.404166666666667E+009;1.727506965398789E-001;1.700473576784134E-002;-3.446973278187215E-005;-3.776262979954481E-003;
2.404333333333334E+009;1.737722605466843E-001;1.635753922164440E-002;-3.856447874568403E-004;-3.709556302055717E-003;
2.404500000000000E+009;1.746966540813446E-001;1.558652054518461E-002;-2.615684352349490E-004;-3.758379956707358E-003;
2.404666666666667E+009;1.757726371288300E-001;1.512654218822718E-002;-6.338289240375161E-004;-3.546406514942646E-003;
2.404833333333334E+009;1.767252087593079E-001;1.454210840165615E-002;-6.680078804492950E-004;-3.516255877912045E-003;
2.405000000000000E+009;1.775963902473450E-001;1.409722398966551E-002;-7.556660566478968E-004;-3.393493359908462E-003;
2.405166666666667E+009;1.783466637134552E-001;1.376727037131786E-002;-7.870031404308975E-004;-3.106416435912252E-003;
2.405333333333334E+009;1.789734810590744E-001;1.335151027888060E-002;-1.044661505147815E-003;-3.032864769920707E-003;
2.405500000000000E+009;1.796181946992874E-001;1.330615300685167E-002;-1.039295690134168E-003;-2.964704064652324E-003;
2.405666666666667E+009;1.802697926759720E-001;1.316201686859131E-002;-1.094905193895102E-003;-2.998555079102516E-003;
2.405833333333334E+009;1.805409938097000E-001;1.320933550596237E-002;-1.230667694471777E-003;-2.834888640791178E-003;
2.406000000000000E+009;1.809746772050858E-001;1.286048721522093E-002;-1.300096162594855E-003;-2.564015099778771E-003;
2.406166666666667E+009;1.811746060848236E-001;1.295829098671675E-002;-1.371144666336477E-003;-2.431646222248673E-003;
2.406333333333334E+009;1.815665066242218E-001;1.280174311250448E-002;-1.352442661300302E-003;-2.501639770343900E-003;
2.406500000000000E+009;1.814692616462708E-001;1.260373461991549E-002;-1.319512375630438E-003;-2.325424691662192E-003;
2.406666666666667E+009;1.813083589076996E-001;1.256944984197617E-002;-1.488675479777157E-003;-2.250926336273551E-003;
2.406833333333334E+009;1.813670098781586E-001;1.239323336631060E-002;-1.210177899338305E-003;-2.069341484457254E-003;
2.407000000000000E+009;1.810743957757950E-001;1.204870548099279E-002;-1.367032411508262E-003;-2.169813727959991E-003;
2.407166666666667E+009;1.808727830648422E-001;1.196553837507963E-002;-1.393403392285109E-003;-1.779761281795800E-003;
2.407333333333334E+009;1.803807914257050E-001;1.154153048992157E-002;-1.403256668709219E-003;-1.854175119660795E-003;
2.407500000000000E+009;1.798451989889145E-001;1.128199975937605E-002;-1.243920763954520E-003;-1.674550469033420E-003;
2.407666666666667E+009;1.795299351215363E-001;1.075860392302275E-002;-1.239510485902429E-003;-1.713854144327343E-003;
2.407833333333334E+009;1.787392795085907E-001;1.017641276121140E-002;-1.111074583604932E-003;-1.780817634426057E-003;
2.408000000000000E+009;1.780962347984314E-001;9.396322071552277E-003;-1.130606746301055E-003;-1.607250538654625E-003;
2.408166666666667E+009;1.772990226745606E-001;8.753381669521332E-003;-1.069360878318548E-003;-1.719149295240641E-003;
2.408333333333334E+009;1.767709106206894E-001;7.879738695919514E-003;-8.600862347520888E-004;-1.630898797884584E-003;
2.408500000000000E+009;1.758635193109512E-001;6.876132450997829E-003;-9.726580465212464E-004;-1.608985592611134E-003;
2.408666666666667E+009;1.751351356506348E-001;5.766038782894611E-003;-8.852927712723613E-004;-1.531513407826424E-003;
2.408833333333334E+009;1.741641610860825E-001;4.614244680851698E-003;-8.572722435928881E-004;-1.762868603691459E-003;
2.409000000000000E+009;1.732152551412582E-001;3.399485955014825E-003;-9.499098523519933E-004;-1.495603006333113E-003;
2.409166666666667E+009;1.723703294992447E-001;1.960306661203504E-003;-9.131827973760665E-004;-1.580801093950868E-003;
2.409333333333334E+009;1.715945899486542E-001;4.701175494119525E-004;-9.413178195245564E-004;-1.548937521874905E-003;
2.409500000000000E+009;1.706694364547730E-001;-1.325361197814345E-003;-7.641916745342314E-004;-1.661828486248851E-003;
2.409666666666667E+009;1.698171645402908E-001;-2.822105307132006E-003;-9.104060591198504E-004;-1.958955544978380E-003;
2.409833333333334E+009;1.690654754638672E-001;-4.510372877120972E-003;-8.647107169963419E-004;-1.978172687813640E-003;
2.410000000000000E+009;1.685384213924408E-001;-6.365331821143627E-003;-8.032385958358645E-004;-1.961402827873826E-003;
2.410166666666667E+009;1.679152995347977E-001;-8.186476305127144E-003;-7.320228614844382E-004;-1.910580438561738E-003;
2.410333333333334E+009;1.671719849109650E-001;-1.016227900981903E-002;-9.109451202675700E-004;-1.990659162402153E-003;
2.410500000000000E+009;1.667717844247818E-001;-1.223654951900244E-002;-9.746432770043612E-004;-1.861111377365887E-003;
2.410666666666667E+009;1.663500070571899E-001;-1.440687105059624E-002;-1.051975763402879E-003;-1.973735867068172E-003;
2.410833333333334E+009;1.659965962171555E-001;-1.623903214931488E-002;-9.651438449509442E-004;-2.052239840850234E-003;
2.411000000000000E+009;1.657509356737137E-001;-1.842730119824410E-002;-1.030476065352559E-003;-2.172929933294654E-003;
2.411166666666667E+009;1.656150072813034E-001;-2.041536197066307E-002;-1.135342288762331E-003;-2.095031086355448E-003;
2.411333333333334E+009;1.656240820884705E-001;-2.250893041491509E-002;-1.349720638245344E-003;-2.104689367115498E-003;
2.411500000000000E+009;1.653901487588882E-001;-2.492162212729454E-002;-1.334285829216242E-003;-2.145259641110897E-003;
2.411666666666667E+009;1.654953658580780E-001;-2.685548923909664E-002;-1.510027796030045E-003;-2.040311461314559E-003;
2.411833333333334E+009;1.657555401325226E-001;-2.904515340924263E-002;-1.393935643136501E-003;-2.129090018570423E-003;
2.412000000000000E+009;1.661537736654282E-001;-3.110498562455177E-002;-1.609144150279462E-003;-2.009179210290313E-003;
2.412166666666667E+009;1.664651930332184E-001;-3.315622359514237E-002;-1.725197304040194E-003;-1.975275110453367E-003;
2.412333333333334E+009;1.672365963459015E-001;-3.497228771448135E-002;-1.838948577642441E-003;-1.938435831107199E-003;
2.412500000000000E+009;1.673988103866577E-001;-3.695783019065857E-002;-2.007241593673825E-003;-1.828837557695806E-003;
2.412666666666667E+009;1.681295782327652E-001;-3.890832886099815E-002;-1.986313378438354E-003;-1.813746523112059E-003;
2.412833333333334E+009;1.689460426568985E-001;-4.087264835834503E-002;-2.017919439822435E-003;-1.692578545771539E-003;
2.413000000000000E+009;1.696110963821411E-001;-4.241410642862320E-002;-1.983636291697621E-003;-1.723852474242449E-003;
2.413166666666667E+009;1.701654493808746E-001;-4.407563805580139E-002;-2.035137964412570E-003;-1.629043603315949E-003;
2.413333333333334E+009;1.709520369768143E-001;-4.580148681998253E-002;-2.216157736256719E-003;-1.555788912810385E-003;
2.413500000000000E+009;1.716227978467941E-001;-4.727213829755783E-002;-2.174146240577102E-003;-1.562879770062864E-003;
2.413666666666667E+009;1.723403334617615E-001;-4.863090440630913E-002;-2.266190946102142E-003;-1.348998863250017E-003;
2.413833333333334E+009;1.733012199401856E-001;-5.011498928070068E-002;-2.468379214406014E-003;-1.187160960398614E-003;
2.414000000000000E+009;1.738674789667130E-001;-5.133172124624252E-002;-2.441347809508443E-003;-1.356355962343514E-003;
2.414166666666667E+009;1.746903210878372E-001;-5.233997106552124E-002;-2.432992681860924E-003;-1.203020219691098E-003;
2.414333333333334E+009;1.754496842622757E-001;-5.333213508129120E-002;-2.604896435514092E-003;-1.149138668552041E-003;
2.414500000000000E+009;1.763868629932404E-001;-5.423312634229660E-002;-2.483935328200460E-003;-1.077481778338552E-003;
2.414666666666667E+009;1.769386082887650E-001;-5.493031442165375E-002;-2.513392129912973E-003;-8.405575063079596E-004;
2.414833333333334E+009;1.775217652320862E-001;-5.581688880920410E-002;-2.581169595941901E-003;-8.209108491428196E-004;
2.415000000000000E+009;1.780019253492355E-001;-5.632176622748375E-002;-2.564068883657455E-003;-6.618133629672229E-004;
2.415166666666667E+009;1.784279346466065E-001;-5.683526769280434E-002;-2.656743628904223E-003;-6.989223766140640E-004;
2.415333333333334E+009;1.790006905794144E-001;-5.748120695352554E-002;-2.566854236647487E-003;-6.086411303840578E-004;
2.415500000000000E+009;1.793138831853867E-001;-5.757265910506249E-002;-2.554153325036168E-003;-6.178747862577438E-004;
2.415666666666667E+009;1.794368624687195E-001;-5.780076980590820E-002;-2.697187475860119E-003;-5.346908583305776E-004;
2.415833333333334E+009;1.797093451023102E-001;-5.822171643376350E-002;-2.508650533854961E-003;-4.684511222876608E-004;
2.416000000000000E+009;1.796658784151077E-001;-5.832578614354134E-002;-2.512011677026749E-003;-2.869472373276949E-004;
2.416166666666667E+009;1.798103302717209E-001;-5.831859260797501E-002;-2.423883881419897E-003;-2.814820036292076E-004;
2.416333333333334E+009;1.794577687978745E-001;-5.838644877076149E-002;-2.578789135441184E-003;-1.709248608676717E-004;
2.416500000000000E+009;1.793109923601151E-001;-5.851783975958824E-002;-2.492913277819753E-003;-1.920999202411622E-004;
2.416666666666667E+009;1.788821518421173E-001;-5.861190706491470E-002;-2.552405698224902E-003;-2.638256992213428E-004;
2.416833333333334E+009;1.785122901201248E-001;-5.867351964116097E-002;-2.602243097499013E-003;4.109281508135609E-005;
2.417000000000000E+009;1.776466965675354E-001;-5.866862088441849E-002;-2.520387759432197E-003;7.481696957256645E-005;
2.417166666666667E+009;1.771387308835983E-001;-5.867977440357208E-002;-2.504740143194795E-003;1.294351968681440E-004;
2.417333333333334E+009;1.763884723186493E-001;-5.875551700592041E-002;-2.474115695804358E-003;2.590118092484772E-004;
2.417500000000000E+009;1.754382401704788E-001;-5.907882377505302E-002;-2.433563582599163E-003;2.038326201727614E-004;
2.417666666666667E+009;1.745167672634125E-001;-5.902332812547684E-002;-2.576427534222603E-003;3.253879840485752E-004;
2.417833333333334E+009;1.735543012619019E-001;-5.929517373442650E-002;-2.495813416317105E-003;3.736585204023868E-004;
2.418000000000000E+009;1.722596883773804E-001;-5.966965481638908E-002;-2.336065284907818E-003;3.249390574637801E-004;
2.418166666666667E+009;1.710192412137985E-001;-5.987524613738060E-002;-2.295669866725802E-003;2.818191715050489E-004;
2.418333333333334E+009;1.700112223625183E-001;-6.038884073495865E-002;-2.376286778599024E-003;4.108858120162040E-004;
2.418500000000000E+009;1.685740649700165E-001;-6.078552827239037E-002;-2.350570401176810E-003;4.637952661141753E-004;
2.418666666666667E+009;1.674277186393738E-001;-6.146053224802017E-002;-2.404574770480394E-003;4.784464254043996E-004;
2.418833333333334E+009;1.657732278108597E-001;-6.205376610159874E-002;-2.385992323979735E-003;5.955759552307427E-004;
2.419000000000000E+009;1.643308699131012E-001;-6.284806877374649E-002;-2.283651847392321E-003;5.731527926400304E-004;
2.419166666666667E+009;1.629309803247452E-001;-6.362858414649963E-002;-2.341464627534151E-003;6.709718145430088E-004;
2.419333333333334E+009;1.614198982715607E-001;-6.430634856224060E-002;-2.284501446411014E-003;7.374496781267226E-004;
2.419500000000000E+009;1.602334231138229E-001;-6.553776562213898E-002;-2.195693086832762E-003;5.650112871080637E-004;
2.419666666666667E+009;1.590235978364945E-001;-6.663002818822861E-002;-2.171149477362633E-003;7.147266296669841E-004;
2.419833333333334E+009;1.573987901210785E-001;-6.770060956478119E-002;-2.326485933735967E-003;5.201073945499957E-004;
2.420000000000000E+009;1.564153134822846E-001;-6.902313977479935E-002;-2.189438324421644E-003;8.061832049861550E-004;
2.420166666666667E+009;1.549750268459320E-001;-7.050040364265442E-002;-2.159464405849576E-003;8.141976431943476E-004;
2.420333333333334E+009;1.539697945117950E-001;-7.189044356346130E-002;-2.236415399238467E-003;6.667888956144452E-004;
2.420500000000000E+009;1.529713124036789E-001;-7.325398176908493E-002;-2.222010400146246E-003;8.060052641667426E-004;
2.420666666666667E+009;1.519418954849243E-001;-7.482341676950455E-002;-2.411773195490241E-003;8.261703187599778E-004;
2.420833333333334E+009;1.511214524507523E-001;-7.641320675611496E-002;-2.185415942221880E-003;9.048355277627707E-004;
2.421000000000000E+009;1.500595957040787E-001;-7.829664647579193E-002;-2.387204905971885E-003;9.365437435917556E-004;
2.421166666666667E+009;1.496333628892899E-001;-8.000411838293076E-002;-2.272848505526781E-003;1.088953576982021E-003;
2.421333333333334E+009;1.490073651075363E-001;-8.179963380098343E-002;-2.393934177234769E-003;1.087488140910864E-003;
2.421500000000000E+009;1.484453529119492E-001;-8.344345539808273E-002;-2.244487637653947E-003;1.162833068519831E-003;
2.421666666666667E+009;1.480937898159027E-001;-8.536475896835327E-002;-2.483723685145378E-003;1.122167101129890E-003;
2.421833333333334E+009;1.478628963232040E-001;-8.716977387666702E-002;-2.481947885826230E-003;1.292502623982728E-003;
2.422000000000000E+009;1.476889252662659E-001;-8.896851539611816E-002;-2.398308599367738E-003;1.403661095537245E-003;
2.422166666666667E+009;1.475773453712463E-001;-9.104754775762558E-002;-2.459829440340400E-003;1.583253149874508E-003;
2.422333333333334E+009;1.477802097797394E-001;-9.277448803186417E-002;-2.320269122719765E-003;1.538399956189096E-003;
2.422500000000000E+009;1.477901041507721E-001;-9.451081603765488E-002;-2.384249586611986E-003;1.770268077962101E-003;
2.422666666666667E+009;1.479410976171494E-001;-9.616690874099731E-002;-2.362016122788191E-003;1.777007011696696E-003;
2.422833333333334E+009;1.482654213905335E-001;-9.816098213195801E-002;-2.438651630654931E-003;1.880202209576964E-003;
2.423000000000000E+009;1.486212313175201E-001;-9.967315196990967E-002;-2.458620816469193E-003;1.960395136848092E-003;
2.423166666666667E+009;1.491680592298508E-001;-1.013514921069145E-001;-2.373176394030452E-003;1.905865618027747E-003;
2.423333333333334E+009;1.497073173522949E-001;-1.029532626271248E-001;-2.233821200206876E-003;2.264991635456681E-003;
2.423500000000000E+009;1.501813530921936E-001;-1.044107601046562E-001;-2.113510388880968E-003;2.470043487846851E-003;
2.423666666666667E+009;1.507688611745834E-001;-1.059407070279121E-001;-2.120161429047585E-003;2.393806586042047E-003;
2.423833333333334E+009;1.514723151922226E-001;-1.073051691055298E-001;-1.919289701618254E-003;2.655680291354656E-003;
2.424000000000000E+009;1.518867611885071E-001;-1.084031462669373E-001;-1.644692849367857E-003;2.726960228756070E-003;
2.424166666666667E+009;1.526956260204315E-001;-1.096440330147743E-001;-1.823879894800484E-003;2.793042920529842E-003;
2.424333333333334E+009;1.534472107887268E-001;-1.106898412108421E-001;-1.647816505283117E-003;2.961447462439537E-003;
2.424500000000000E+009;1.541278660297394E-001;-1.117907017469406E-001;-1.587677281349897E-003;3.032040782272816E-003;
2.424666666666667E+009;1.547825485467911E-001;-1.125730872154236E-001;-1.502063125371933E-003;2.984017366543412E-003;
2.424833333333334E+009;1.553309261798859E-001;-1.134937927126885E-001;-1.387803000397980E-003;3.019770141690970E-003;
2.425000000000000E+009;1.559983938932419E-001;-1.142999380826950E-001;-9.301078389398754E-004;3.051773644983769E-003;
2.425166666666667E+009;1.563832610845566E-001;-1.149600073695183E-001;-8.779136696830392E-004;3.123660571873188E-003;
2.425333333333334E+009;1.568471938371658E-001;-1.154140084981918E-001;-9.873517556115985E-004;3.149179974570870E-003;
2.425500000000000E+009;1.573949009180069E-001;-1.158748865127564E-001;-7.387875230051577E-004;3.236772026866674E-003;
2.425666666666667E+009;1.575483679771423E-001;-1.163992583751679E-001;-5.363207310438156E-004;3.152249613776803E-003;
2.425833333333334E+009;1.577911227941513E-001;-1.166013553738594E-001;-3.283565747551620E-004;3.401065245270729E-003;
2.426000000000000E+009;1.580242514610291E-001;-1.168898493051529E-001;-2.351346483919770E-004;3.187552094459534E-003;
2.426166666666667E+009;1.582933068275452E-001;-1.171731129288673E-001;-2.914791111834347E-004;3.203382948413491E-003;
2.426333333333334E+009;1.580480933189392E-001;-1.172729358077049E-001;-4.048626942676492E-005;3.064864315092564E-003;
2.426500000000000E+009;1.580175906419754E-001;-1.172100603580475E-001;3.021534666913794E-007;3.085828619077802E-003;
2.426666666666667E+009;1.579620242118835E-001;-1.171158403158188E-001;5.477211016113870E-005;3.082841634750366E-003;
2.426833333333334E+009;1.576197743415833E-001;-1.172534599900246E-001;3.713447658810765E-004;2.992613473907113E-003;
2.427000000000000E+009;1.570674479007721E-001;-1.172677055001259E-001;2.118021948263049E-004;2.996349940076470E-003;
2.427166666666667E+009;1.565640717744827E-001;-1.171701699495316E-001;3.898542199749500E-004;2.952842041850090E-003;
2.427333333333334E+009;1.557937264442444E-001;-1.170916408300400E-001;5.335023161023855E-004;3.009258769452572E-003;
2.427500000000000E+009;1.552606374025345E-001;-1.170663759112358E-001;6.040646112523973E-004;3.004331374540925E-003;
2.427666666666667E+009;1.542599052190781E-001;-1.170985922217369E-001;6.492515094578266E-004;2.734061563387513E-003;
