# Version 1.00
#
freq[Hz];re:Trc1_S11;im:Trc1_S11;re:Trc2_S21;im:Trc2_S21;
2.400000000000000E+009;1.689545065164566E-001;4.705384373664856E-002;-2.901965519413352E-003;-1.815783209167421E-003;
2.400166666666667E+009;1.700101047754288E-001;4.614789038896561E-002;-2.938722027465701E-003;-1.668427023105323E-003;
2.400333333333334E+009;1.709335297346115E-001;4.497304931282997E-002;-2.897254191339016E-003;-1.714910264126957E-003;
2.400500000000000E+009;1.719275563955307E-001;4.390604048967362E-002;-2.865537768229842E-003;-1.671771868132055E-003;
2.400666666666667E+009;1.726474612951279E-001;4.298839345574379E-002;-3.077223664149642E-003;-1.508415909484029E-003;
2.400833333333334E+009;1.735415607690811E-001;4.231603071093559E-002;-3.064801683649421E-003;-1.346476259641349E-003;
2.401000000000000E+009;1.742318123579025E-001;4.149873554706574E-002;-3.031192580237985E-003;-1.350704347714782E-003;
2.401166666666667E+009;1.750113517045975E-001;4.059503227472305E-002;-3.155844984576106E-003;-1.183360465802252E-003;
2.401333333333334E+009;1.755613088607788E-001;3.993742913007736E-002;-3.213340649381280E-003;-1.139779691584408E-003;
2.401500000000000E+009;1.765175461769104E-001;3.921244665980339E-002;-3.291314234957099E-003;-7.490119314752519E-004;
2.401666666666667E+009;1.769929379224777E-001;3.876808285713196E-002;-3.183538094162941E-003;-7.134670740924776E-004;
2.401833333333334E+009;1.773586869239807E-001;3.812508657574654E-002;-3.319717245176435E-003;-6.894673570059240E-004;
2.402000000000000E+009;1.777803450822830E-001;3.743042796850205E-002;-3.266978310421109E-003;-3.535040887072682E-004;
2.402166666666667E+009;1.782812029123306E-001;3.664004430174828E-002;-3.302807919681072E-003;-3.177372273057699E-004;
2.402333333333334E+009;1.784771829843521E-001;3.618172928690910E-002;-3.229647874832153E-003;-1.656673994148150E-004;
2.402500000000000E+009;1.789268255233765E-001;3.538315743207932E-002;-3.184453584253788E-003;1.424251968273893E-005;
2.402666666666667E+009;1.791434735059738E-001;3.493482992053032E-002;-3.148664953187108E-003;6.640179344685748E-005;
2.402833333333334E+009;1.790681183338165E-001;3.409529477357864E-002;-3.246247069910169E-003;1.758746075211093E-004;
2.403000000000000E+009;1.792180836200714E-001;3.329692035913467E-002;-3.028144827112556E-003;2.533121441956610E-004;
2.403166666666667E+009;1.793032288551331E-001;3.240291401743889E-002;-2.959723118692637E-003;3.710806777235121E-004;
2.403333333333334E+009;1.790420413017273E-001;3.151697665452957E-002;-2.851441269740462E-003;4.900622298009694E-004;
2.403500000000000E+009;1.789008975028992E-001;3.060155361890793E-002;-2.701542805880308E-003;3.365967713762075E-004;
2.403666666666667E+009;1.786425709724426E-001;2.937530539929867E-002;-2.647772664204240E-003;4.494966706261039E-004;
2.403833333333334E+009;1.784891784191132E-001;2.837076410651207E-002;-2.670862013474107E-003;5.783876404166222E-004;
2.404000000000000E+009;1.781247407197952E-001;2.747941762208939E-002;-2.514734398573637E-003;6.639843923039734E-004;
2.404166666666667E+009;1.776391714811325E-001;2.606672048568726E-002;-2.589284675195813E-003;8.423496619798243E-004;
2.404333333333334E+009;1.772646605968475E-001;2.478482760488987E-002;-2.341408282518387E-003;9.503376204520464E-004;
2.404500000000000E+009;1.767680048942566E-001;2.328502573072910E-002;-2.355991164222360E-003;8.798087947070599E-004;
2.404666666666667E+009;1.762455105781555E-001;2.209973521530628E-002;-2.259611617773771E-003;7.528475252911449E-004;
2.404833333333334E+009;1.758413165807724E-001;2.070167660713196E-002;-2.181024756282568E-003;1.008701859973371E-003;
2.405000000000000E+009;1.753547340631485E-001;1.900777034461498E-002;-2.098124241456389E-003;9.553077979944646E-004;
2.405166666666667E+009;1.748834997415543E-001;1.740765944123268E-002;-2.062595216557384E-003;1.104468246921897E-003;
2.405333333333334E+009;1.746641546487808E-001;1.561204902827740E-002;-1.993745798245072E-003;1.069215475581586E-003;
2.405500000000000E+009;1.741738021373749E-001;1.414604671299458E-002;-2.009927760809660E-003;1.001886907033622E-003;
2.405666666666667E+009;1.737942844629288E-001;1.250691246241331E-002;-1.871772576123476E-003;9.888426866382361E-004;
2.405833333333334E+009;1.734212934970856E-001;1.057289820164442E-002;-1.912567997351289E-003;1.088463584892452E-003;
2.406000000000000E+009;1.731198877096176E-001;8.519398048520088E-003;-1.936848275363445E-003;1.052982057444751E-003;
2.406166666666667E+009;1.728598624467850E-001;6.813125219196081E-003;-1.758494065143168E-003;9.496794664300978E-004;
2.406333333333334E+009;1.729420274496079E-001;4.862196743488312E-003;-1.850021420978010E-003;1.168331829831004E-003;
2.406500000000000E+009;1.726435273885727E-001;2.775316359475255E-003;-1.790596754290164E-003;1.014537992887199E-003;
2.406666666666667E+009;1.725964993238449E-001;8.389899157918990E-004;-1.816874835640192E-003;1.021876232698560E-003;
2.406833333333334E+009;1.726994365453720E-001;-1.295111957006156E-003;-1.789323170669377E-003;9.692824096418917E-004;
2.407000000000000E+009;1.728030145168304E-001;-3.275973722338677E-003;-1.663964474573731E-003;1.173750497400761E-003;
2.407166666666667E+009;1.730414777994156E-001;-5.299916025251150E-003;-1.693674828857184E-003;1.130972756072879E-003;
2.407333333333334E+009;1.731193959712982E-001;-7.436677813529968E-003;-1.723728142678738E-003;1.102533075027168E-003;
2.407500000000000E+009;1.735420823097229E-001;-9.522076696157455E-003;-1.729271141812205E-003;1.058884547092021E-003;
2.407666666666667E+009;1.737749129533768E-001;-1.139309536665678E-002;-1.759454375132918E-003;1.207701512612402E-003;
2.407833333333334E+009;1.740342676639557E-001;-1.366888731718063E-002;-1.513852272182703E-003;1.313383574597538E-003;
2.408000000000000E+009;1.745797395706177E-001;-1.573830470442772E-002;-1.554007874801755E-003;1.328319893218577E-003;
2.408166666666667E+009;1.749471724033356E-001;-1.771318912506104E-002;-1.513883937150240E-003;1.443789456970990E-003;
2.408333333333334E+009;1.755121350288391E-001;-1.964245736598969E-002;-1.337705180048943E-003;1.364609459415078E-003;
2.408500000000000E+009;1.758625507354736E-001;-2.150593325495720E-002;-1.366733107715845E-003;1.425454625859857E-003;
2.408666666666667E+009;1.763436794281006E-001;-2.339324168860912E-002;-1.091582700610161E-003;1.405570190399885E-003;
2.408833333333334E+009;1.765991747379303E-001;-2.504608035087585E-002;-1.017523929476738E-003;1.524738618172705E-003;
2.409000000000000E+009;1.770230978727341E-001;-2.657098323106766E-002;-9.966656798496842E-004;1.551943481899798E-003;
2.409166666666667E+009;1.775168031454086E-001;-2.824096009135246E-002;-1.104539958760142E-003;1.371538848616183E-003;
2.409333333333334E+009;1.780636310577393E-001;-2.959519438445568E-002;-1.018547802232206E-003;1.439559855498374E-003;
2.409500000000000E+009;1.784058511257172E-001;-3.102752938866615E-002;-9.042480378411710E-004;1.307589001953602E-003;
2.409666666666667E+009;1.787829697132111E-001;-3.206268325448036E-002;-8.289810502901673E-004;1.265368075110018E-003;
2.409833333333334E+009;1.790684610605240E-001;-3.301595151424408E-002;-7.732492522336543E-004;1.210571383126080E-003;
2.410000000000000E+009;1.796777397394180E-001;-3.410651162266731E-002;-6.608122494071722E-004;1.310518127866089E-003;
2.410166666666667E+009;1.801346838474274E-001;-3.493886813521385E-002;-6.856471882201731E-004;1.137015991844237E-003;
2.410333333333334E+009;1.804586350917816E-001;-3.576141223311424E-002;-8.408871944993734E-004;1.059966278262436E-003;
2.410500000000000E+009;1.810447126626968E-001;-3.638751059770584E-002;-7.444713264703751E-004;9.413321386091411E-004;
2.410666666666667E+009;1.812692582607269E-001;-3.710948675870895E-002;-8.583978633396328E-004;9.626240935176611E-004;
2.410833333333334E+009;1.815387308597565E-001;-3.773920983076096E-002;-8.140154532156885E-004;8.866594289429486E-004;
2.411000000000000E+009;1.817350238561630E-001;-3.815862163901329E-002;-8.138251141645014E-004;9.127244702540338E-004;
2.411166666666667E+009;1.820740699768066E-001;-3.859502449631691E-002;-8.377940976060927E-004;9.279277874156833E-004;
2.411333333333334E+009;1.820540130138397E-001;-3.903634101152420E-002;-1.017793780192733E-003;7.987788994796574E-004;
2.411500000000000E+009;1.821594983339310E-001;-3.962352499365807E-002;-9.274036274291575E-004;8.421409875154495E-004;
2.411666666666667E+009;1.822085827589035E-001;-3.990367799997330E-002;-1.090546953491867E-003;8.247639052569866E-004;
2.411833333333334E+009;1.820097863674164E-001;-4.020998254418373E-002;-1.123396097682416E-003;7.311691879294813E-004;
2.412000000000000E+009;1.819079816341400E-001;-4.073246568441391E-002;-1.174662378616631E-003;6.853657541796565E-004;
2.412166666666667E+009;1.814524233341217E-001;-4.101672396063805E-002;-1.318578957580030E-003;8.586514741182327E-004;
2.412333333333334E+009;1.813873648643494E-001;-4.120470583438873E-002;-1.452559954486787E-003;7.574224728159607E-004;
2.412500000000000E+009;1.806544214487076E-001;-4.150704294443131E-002;-1.474585849791765E-003;7.724485476501286E-004;
2.412666666666667E+009;1.799931973218918E-001;-4.216149449348450E-002;-1.623015385121107E-003;8.725591469556093E-004;
2.412833333333334E+009;1.793929487466812E-001;-4.234969243407250E-002;-1.735045225359500E-003;7.582186372019351E-004;
2.413000000000000E+009;1.785960644483566E-001;-4.285433143377304E-002;-1.884174183942378E-003;9.408365585841239E-004;
2.413166666666667E+009;1.776310056447983E-001;-4.299377650022507E-002;-1.871863030828536E-003;1.063691917806864E-003;
2.413333333333334E+009;1.768288761377335E-001;-4.381217435002327E-002;-2.087000990286470E-003;1.087310025468469E-003;
2.413500000000000E+009;1.757016330957413E-001;-4.428111761808395E-002;-2.360850339755416E-003;1.266618957743049E-003;
2.413666666666667E+009;1.748075634241104E-001;-4.483201354742050E-002;-2.276330022141337E-003;1.352178747765720E-003;
2.413833333333334E+009;1.735611855983734E-001;-4.536149650812149E-002;-2.460709307342768E-003;1.504313433542848E-003;
2.414000000000000E+009;1.724017411470413E-001;-4.620502889156342E-002;-2.481203293427825E-003;1.744474982842803E-003;
2.414166666666667E+009;1.712416708469391E-001;-4.684919491410255E-002;-2.483559073880315E-003;2.010460011661053E-003;
2.414333333333334E+009;1.700480133295059E-001;-4.773851111531258E-002;-2.711084438487887E-003;2.296934602782130E-003;
2.414500000000000E+009;1.690341234207153E-001;-4.858217760920525E-002;-2.493374049663544E-003;2.425733488053083E-003;
2.414666666666667E+009;1.677194535732269E-001;-4.950562864542007E-002;-2.638357924297452E-003;2.792204264551401E-003;
2.414833333333334E+009;1.664196550846100E-001;-5.070392787456513E-002;-2.641327911987901E-003;2.987101441249251E-003;
2.415000000000000E+009;1.651705205440521E-001;-5.177155137062073E-002;-2.448515966534615E-003;3.247902262955904E-003;
2.415166666666667E+009;1.640758365392685E-001;-5.317886173725128E-002;-2.236919710412622E-003;3.616000292822719E-003;
2.415333333333334E+009;1.629517674446106E-001;-5.452628061175346E-002;-2.263676840811968E-003;3.827493637800217E-003;
2.415500000000000E+009;1.619015336036682E-001;-5.584721267223358E-002;-2.007473725825548E-003;4.061501938849688E-003;
2.415666666666667E+009;1.606844663619995E-001;-5.731796473264694E-002;-1.845951541326940E-003;4.275375977158546E-003;
2.415833333333334E+009;1.597561985254288E-001;-5.901692435145378E-002;-1.551573164761066E-003;4.425987135618925E-003;
2.416000000000000E+009;1.585528850555420E-001;-6.078175827860832E-002;-1.209854031912983E-003;4.715919960290194E-003;
2.416166666666667E+009;1.578564941883087E-001;-6.256882101297379E-002;-9.494834230281413E-004;4.874235019087791E-003;
2.416333333333334E+009;1.567932367324829E-001;-6.445802748203278E-002;-7.120406371541321E-004;5.008661188185215E-003;
2.416500000000000E+009;1.559334546327591E-001;-6.644677370786667E-002;-3.740935644600540E-004;4.993160255253315E-003;
2.416666666666667E+009;1.549666225910187E-001;-6.832475960254669E-002;-2.079435944324359E-004;5.102586001157761E-003;
2.416833333333334E+009;1.542677581310272E-001;-7.032692432403565E-002;9.769391181180254E-005;5.288965534418821E-003;
2.417000000000000E+009;1.534139513969421E-001;-7.232974469661713E-002;5.019467789679766E-004;5.210116505622864E-003;
2.417166666666667E+009;1.527865082025528E-001;-7.422956824302673E-002;6.642026128247380E-004;5.281837191432715E-003;
2.417333333333334E+009;1.522197872400284E-001;-7.612997293472290E-002;1.072499435395002E-003;5.169362761080265E-003;
2.417500000000000E+009;1.516471803188324E-001;-7.819169759750366E-002;1.459127292037010E-003;5.238303449004889E-003;
2.417666666666667E+009;1.512566804885864E-001;-7.999001443386078E-002;1.685993745923042E-003;5.210143513977528E-003;
2.417833333333334E+009;1.508735716342926E-001;-8.193334937095642E-002;1.944050309248269E-003;5.045296158641577E-003;
2.418000000000000E+009;1.504252851009369E-001;-8.385766297578812E-002;2.261696150526404E-003;5.031047388911247E-003;
2.418166666666667E+009;1.501928269863129E-001;-8.539212495088577E-002;2.462296979501844E-003;4.736759699881077E-003;
2.418333333333334E+009;1.502264887094498E-001;-8.724192529916763E-002;2.883272245526314E-003;4.636256955564022E-003;
2.418500000000000E+009;1.499920934438705E-001;-8.874277770519257E-002;3.094111569225788E-003;4.306676331907511E-003;
2.418666666666667E+009;1.500587612390518E-001;-9.033969789743424E-002;3.242049366235733E-003;4.134347196668387E-003;
2.418833333333334E+009;1.499372124671936E-001;-9.168848395347595E-002;3.372477367520332E-003;3.722015069797635E-003;
2.419000000000000E+009;1.498557627201080E-001;-9.296513348817825E-002;3.560043638572097E-003;3.667973680421710E-003;
2.419166666666667E+009;1.500563919544220E-001;-9.419613331556320E-002;3.544523613527417E-003;3.397982567548752E-003;
2.419333333333334E+009;1.498102843761444E-001;-9.504206478595734E-002;3.656557295471430E-003;3.228541696444154E-003;
2.419500000000000E+009;1.502559483051300E-001;-9.634476900100708E-002;3.867367981001735E-003;2.992938738316298E-003;
2.419666666666667E+009;1.505101174116135E-001;-9.721098095178604E-002;3.833324881270528E-003;2.906384179368615E-003;
2.419833333333334E+009;1.506215631961823E-001;-9.780522435903549E-002;4.039220046252012E-003;2.651433227583766E-003;
2.420000000000000E+009;1.511802077293396E-001;-9.856119006872177E-002;4.139576107263565E-003;2.419199794530869E-003;
2.420166666666667E+009;1.514292508363724E-001;-9.897980839014053E-002;4.028836730867624E-003;2.382461680099368E-003;
2.420333333333334E+009;1.516282111406326E-001;-9.950114786624908E-002;4.088372923433781E-003;2.155245281755924E-003;
2.420500000000000E+009;1.520369499921799E-001;-9.971874952316284E-002;4.100950900465250E-003;2.038787351921201E-003;
2.420666666666667E+009;1.521853059530258E-001;-9.978646785020828E-002;4.127501044422388E-003;1.971965655684471E-003;
2.420833333333334E+009;1.524936556816101E-001;-9.997415542602539E-002;4.248633049428463E-003;1.717897830531001E-003;
2.421000000000000E+009;1.526356935501099E-001;-1.003114581108093E-001;4.125707317143679E-003;1.521070953458548E-003;
2.421166666666667E+009;1.527952849864960E-001;-1.000971645116806E-001;4.234381485730410E-003;1.434996491298080E-003;
2.421333333333334E+009;1.530789285898209E-001;-9.997721761465073E-002;4.232430364936590E-003;1.380573026835918E-003;
2.421500000000000E+009;1.531293690204620E-001;-9.973372519016266E-002;4.357611760497093E-003;1.316619920544326E-003;
2.421666666666667E+009;1.531831622123718E-001;-9.967885911464691E-002;4.339744336903095E-003;1.235851435922086E-003;
2.421833333333334E+009;1.531832218170166E-001;-9.949202835559845E-002;4.609487019479275E-003;9.418429108336568E-004;
2.422000000000000E+009;1.528093516826630E-001;-9.911035001277924E-002;4.587620962411165E-003;7.211946067400277E-004;
2.422166666666667E+009;1.525747478008270E-001;-9.898235648870468E-002;4.438488278537989E-003;5.845935083925724E-004;
2.422333333333334E+009;1.520987302064896E-001;-9.874407947063446E-002;4.498868715018034E-003;4.385061329230666E-004;
2.422500000000000E+009;1.516679227352142E-001;-9.837321192026138E-002;4.693231079727411E-003;1.990594319067895E-004;
2.422666666666667E+009;1.509736329317093E-001;-9.793972969055176E-002;4.623970948159695E-003;1.045115132001229E-004;
2.422833333333334E+009;1.503755599260330E-001;-9.760889410972595E-002;4.484959412366152E-003;3.099316745647229E-005;
2.423000000000000E+009;1.493666321039200E-001;-9.715247899293900E-002;4.545657429844141E-003;-2.200920134782791E-004;
2.423166666666667E+009;1.485333889722824E-001;-9.700188040733337E-002;4.504866898059845E-003;-4.322791355662048E-004;
2.423333333333334E+009;1.475562751293182E-001;-9.628780186176300E-002;4.514122381806374E-003;-5.003728438168764E-004;
2.423500000000000E+009;1.464262455701828E-001;-9.609887748956680E-002;4.335260018706322E-003;-7.402200717478991E-004;
2.423666666666667E+009;1.450706273317337E-001;-9.586851298809052E-002;4.488499835133553E-003;-7.557648932561278E-004;
2.423833333333334E+009;1.438558846712112E-001;-9.559489041566849E-002;4.421999678015709E-003;-8.876482024788857E-004;
2.424000000000000E+009;1.426027119159699E-001;-9.518057107925415E-002;4.259218927472830E-003;-9.697843343019486E-004;
2.424166666666667E+009;1.411719024181366E-001;-9.505459666252136E-002;4.269606433808804E-003;-1.115070190280676E-003;
2.424333333333334E+009;1.397488564252853E-001;-9.481970220804215E-002;4.262377973645926E-003;-1.485512591898441E-003;
2.424500000000000E+009;1.383271515369415E-001;-9.500593692064285E-002;4.333744291216135E-003;-1.529263914562762E-003;
2.424666666666667E+009;1.370654106140137E-001;-9.477307647466660E-002;4.211764317005873E-003;-1.613106229342520E-003;
2.424833333333334E+009;1.352967619895935E-001;-9.516756236553192E-002;4.172833636403084E-003;-1.800794969312847E-003;
2.425000000000000E+009;1.340138018131256E-001;-9.547345340251923E-002;4.157494287937880E-003;-1.955940155312419E-003;
2.425166666666667E+009;1.322716176509857E-001;-9.597203880548477E-002;3.927062265574932E-003;-2.192327985540032E-003;
2.425333333333334E+009;1.306975781917572E-001;-9.635606408119202E-002;3.785493550822139E-003;-2.276510000228882E-003;
2.425500000000000E+009;1.294877678155899E-001;-9.712388366460800E-002;3.833932802081108E-003;-2.411764115095139E-003;
2.425666666666667E+009;1.278622448444367E-001;-9.789115190505981E-002;3.551274538040161E-003;-2.529521472752094E-003;
2.425833333333334E+009;1.265664398670197E-001;-9.874743968248367E-002;3.466232679784298E-003;-2.671828493475914E-003;
2.426000000000000E+009;1.250350177288055E-001;-9.985110908746719E-002;3.375759348273277E-003;-2.813777886331081E-003;
2.426166666666667E+009;1.238928511738777E-001;-1.010504961013794E-001;3.244858700782061E-003;-2.849062439054251E-003;
2.426333333333334E+009;1.224205493927002E-001;-1.022749617695808E-001;3.052374813705683E-003;-2.867155475541949E-003;
2.426500000000000E+009;1.212982907891274E-001;-1.035620048642159E-001;2.837293082848191E-003;-2.971632173284888E-003;
2.426666666666667E+009;1.202611848711968E-001;-1.048050522804260E-001;2.757079666480422E-003;-3.029611660167575E-003;
2.426833333333334E+009;1.190636530518532E-001;-1.063580289483070E-001;2.657845383509994E-003;-3.108272561803460E-003;
2.427000000000000E+009;1.179495230317116E-001;-1.080184727907181E-001;2.495250198990107E-003;-2.996195573359728E-003;
2.427166666666667E+009;1.171642765402794E-001;-1.095555499196053E-001;2.348729874938726E-003;-2.957366174086928E-003;
2.427333333333334E+009;1.160413995385170E-001;-1.111841797828674E-001;2.260352950543165E-003;-3.135290928184986E-003;
2.427500000000000E+009;1.153978034853935E-001;-1.129241213202477E-001;2.193934284150600E-003;-2.986865118145943E-003;
2.427666666666667E+009;1.147654205560684E-001;-1.147662475705147E-001;2.020155778154731E-003;-3.179959720000625E-003;
