# Version 1.00
#
freq[Hz];re:Trc1_S11;im:Trc1_S11;re:Trc2_S21;im:Trc2_S21;
2.400000000000000E+009;1.687935739755631E-001;4.693815857172012E-002;-3.152889432385564E-003;-1.850253320299089E-003;
2.400166666666667E+009;1.698289364576340E-001;4.593541845679283E-002;-3.209743415936828E-003;-1.798144308850169E-003;
2.400333333333334E+009;1.706690341234207E-001;4.478463530540466E-002;-3.201318904757500E-003;-1.618493697606027E-003;
2.400500000000000E+009;1.717846244573593E-001;4.387093335390091E-002;-3.237833734601736E-003;-1.500077894888818E-003;
2.400666666666667E+009;1.724919229745865E-001;4.303063824772835E-002;-3.121775342151523E-003;-1.539601129479706E-003;
2.400833333333334E+009;1.735056787729263E-001;4.218763858079910E-002;-3.216045210137963E-003;-1.368185272440314E-003;
2.401000000000000E+009;1.742654889822006E-001;4.139639437198639E-002;-3.274537622928619E-003;-1.406090334057808E-003;
2.401166666666667E+009;1.748760789632797E-001;4.060401394963265E-002;-3.198620397597551E-003;-1.136900275014341E-003;
2.401333333333334E+009;1.753747314214706E-001;3.992281109094620E-002;-3.460532519966364E-003;-1.063290284946561E-003;
2.401500000000000E+009;1.763452589511871E-001;3.933645039796829E-002;-3.359170164912939E-003;-8.839471847750247E-004;
2.401666666666667E+009;1.767873317003250E-001;3.878949582576752E-002;-3.415022278204560E-003;-6.790139595977962E-004;
2.401833333333334E+009;1.772486716508865E-001;3.791636228561401E-002;-3.407194046303630E-003;-8.051768527366221E-004;
2.402000000000000E+009;1.777072697877884E-001;3.734401240944862E-002;-3.577618394047022E-003;-4.658849502447993E-004;
2.402166666666667E+009;1.781656444072723E-001;3.667706251144409E-002;-3.362813731655479E-003;-2.051911724265665E-004;
2.402333333333334E+009;1.785757541656494E-001;3.612408041954041E-002;-3.266023239120841E-003;-4.386245200294070E-005;
2.402500000000000E+009;1.789313554763794E-001;3.549708798527718E-002;-3.348842961713672E-003;-1.134195990744047E-004;
2.402666666666667E+009;1.789934039115906E-001;3.483467176556587E-002;-3.379889531061053E-003;1.947811833815649E-004;
2.402833333333334E+009;1.791128516197205E-001;3.410892561078072E-002;-3.185533219948411E-003;2.578319399617612E-004;
2.403000000000000E+009;1.793348044157028E-001;3.338862955570221E-002;-3.106132382526994E-003;2.522670256439596E-004;
2.403166666666667E+009;1.793368011713028E-001;3.245503827929497E-002;-3.040830604732037E-003;4.610586620401591E-004;
2.403333333333334E+009;1.790163367986679E-001;3.170095384120941E-002;-2.976666204631329E-003;5.161134176887572E-004;
2.403500000000000E+009;1.788748651742935E-001;3.060433827340603E-002;-3.037985414266586E-003;5.811185110360384E-004;
2.403666666666667E+009;1.784783452749252E-001;2.954301983118057E-002;-2.857691841199994E-003;5.069099715910852E-004;
2.403833333333334E+009;1.785691827535629E-001;2.854009903967381E-002;-2.679103752598167E-003;9.464928298257291E-004;
2.404000000000000E+009;1.781464368104935E-001;2.742943726480007E-002;-2.688066102564335E-003;7.123765535652638E-004;
2.404166666666667E+009;1.776674687862396E-001;2.601663023233414E-002;-2.623174339532852E-003;1.068974146619439E-003;
2.404333333333334E+009;1.771765202283859E-001;2.485133334994316E-002;-2.606664085760713E-003;9.476025588810444E-004;
2.404500000000000E+009;1.767849922180176E-001;2.356143295764923E-002;-2.522493479773402E-003;9.674971806816757E-004;
2.404666666666667E+009;1.762583255767822E-001;2.212306857109070E-002;-2.466149860993028E-003;1.056646811775863E-003;
2.404833333333334E+009;1.759782582521439E-001;2.070573158562183E-002;-2.248923992738128E-003;1.009764382615686E-003;
2.405000000000000E+009;1.752964258193970E-001;1.900239288806915E-002;-2.119541633874178E-003;1.112824887968600E-003;
2.405166666666667E+009;1.748664677143097E-001;1.746011525392532E-002;-2.098656026646495E-003;1.104038092307746E-003;
2.405333333333334E+009;1.745107769966126E-001;1.566545106470585E-002;-2.029826864600182E-003;1.110597397200763E-003;
2.405500000000000E+009;1.740254163742065E-001;1.412921585142613E-002;-2.047570655122399E-003;1.142982277087867E-003;
2.405666666666667E+009;1.737290024757385E-001;1.231982652097940E-002;-2.022549742832780E-003;1.067850738763809E-003;
2.405833333333334E+009;1.733630001544952E-001;1.051203999668360E-002;-1.873148488812149E-003;1.250763074494898E-003;
2.406000000000000E+009;1.731711626052856E-001;8.576677180826664E-003;-1.900098985061050E-003;9.970403043553233E-004;
2.406166666666667E+009;1.728413403034210E-001;6.855001207441092E-003;-1.907381461933255E-003;1.084885676391423E-003;
2.406333333333334E+009;1.728398054838181E-001;4.845002666115761E-003;-1.785790314897895E-003;1.140827662311494E-003;
2.406500000000000E+009;1.726292222738266E-001;2.785737160593271E-003;-1.810189569368959E-003;1.148527488112450E-003;
2.406666666666667E+009;1.725075244903565E-001;8.466586004942656E-004;-1.886733225546777E-003;1.331375679001212E-003;
2.406833333333334E+009;1.725925356149674E-001;-1.300143892876804E-003;-1.849754829891026E-003;1.336086424998939E-003;
2.407000000000000E+009;1.728178560733795E-001;-3.142308443784714E-003;-1.855915063060820E-003;1.298908959142864E-003;
2.407166666666667E+009;1.730497777462006E-001;-5.287501495331526E-003;-1.752561773173511E-003;1.453882083296776E-003;
2.407333333333334E+009;1.731467097997665E-001;-7.495978847146034E-003;-1.780629856511951E-003;1.463334658183157E-003;
2.407500000000000E+009;1.734511256217957E-001;-9.573573246598244E-003;-1.572273555211723E-003;1.459415419958532E-003;
2.407666666666667E+009;1.737734973430634E-001;-1.149529684334993E-002;-1.755035831592977E-003;1.419314183294773E-003;
2.407833333333334E+009;1.739331483840942E-001;-1.368374936282635E-002;-1.513769500888884E-003;1.520646270364523E-003;
2.408000000000000E+009;1.745133399963379E-001;-1.570460759103298E-002;-1.536593539640307E-003;1.706858398392797E-003;
2.408166666666667E+009;1.747801005840302E-001;-1.753544434905052E-002;-1.471516909077764E-003;1.656782929785550E-003;
2.408333333333334E+009;1.754388809204102E-001;-1.950442418456078E-002;-1.175243756733835E-003;1.622538780793548E-003;
2.408500000000000E+009;1.757113635540009E-001;-2.142437361180782E-002;-1.260222052223980E-003;1.632422325201333E-003;
2.408666666666667E+009;1.762224286794663E-001;-2.335722744464874E-002;-1.116412575356662E-003;1.756141544319689E-003;
2.408833333333334E+009;1.765121221542358E-001;-2.508370019495487E-002;-1.086255535483360E-003;1.635297900065780E-003;
2.409000000000000E+009;1.770140975713730E-001;-2.657838910818100E-002;-1.005845493637025E-003;1.710485434159637E-003;
2.409166666666667E+009;1.775384545326233E-001;-2.825648151338100E-002;-9.364609722979367E-004;1.597614842467010E-003;
2.409333333333334E+009;1.780478507280350E-001;-2.958145365118980E-002;-1.003340817987919E-003;1.545428996905685E-003;
2.409500000000000E+009;1.782958209514618E-001;-3.091230802237988E-002;-7.282398291863501E-004;1.427403767593205E-003;
2.409666666666667E+009;1.787021756172180E-001;-3.198895603418350E-002;-7.509168353863061E-004;1.358238398097456E-003;
2.409833333333334E+009;1.792091131210327E-001;-3.301364555954933E-002;-8.121063001453877E-004;1.385979820042849E-003;
2.410000000000000E+009;1.797888725996018E-001;-3.402905911207199E-002;-6.619701744057238E-004;1.300439937040210E-003;
2.410166666666667E+009;1.801881194114685E-001;-3.487552329897881E-002;-8.112498326227069E-004;1.193912350572646E-003;
2.410333333333334E+009;1.804156005382538E-001;-3.557532280683518E-002;-6.961360340937972E-004;1.320591080002487E-003;
2.410500000000000E+009;1.809385120868683E-001;-3.642678633332253E-002;-5.618360009975731E-004;1.235874718986452E-003;
2.410666666666667E+009;1.814774125814438E-001;-3.721100091934204E-002;-7.394174463115633E-004;1.087475218810141E-003;
2.410833333333334E+009;1.817675828933716E-001;-3.758699819445610E-002;-8.150356006808579E-004;9.417265537194908E-004;
2.411000000000000E+009;1.818439513444901E-001;-3.820548206567764E-002;-8.920009131543338E-004;1.044929493218660E-003;
2.411166666666667E+009;1.821842789649963E-001;-3.871003165841103E-002;-7.365212659351528E-004;1.044136472046375E-003;
2.411333333333334E+009;1.821559220552445E-001;-3.908070549368858E-002;-8.556913817301393E-004;9.871965739876032E-004;
2.411500000000000E+009;1.822603046894074E-001;-3.972404450178146E-002;-8.691066759638488E-004;9.787911549210548E-004;
2.411666666666667E+009;1.823853552341461E-001;-4.005443304777145E-002;-8.386758854612708E-004;8.229037630371749E-004;
2.411833333333334E+009;1.822350025177002E-001;-4.028617218136787E-002;-1.166397822089493E-003;8.324625086970627E-004;
2.412000000000000E+009;1.818887144327164E-001;-4.071109369397163E-002;-1.065426622517407E-003;7.944471435621381E-004;
2.412166666666667E+009;1.813991367816925E-001;-4.105630889534950E-002;-1.291018212214112E-003;8.514370420016348E-004;
2.412333333333334E+009;1.813862174749374E-001;-4.136696830391884E-002;-1.240519224666059E-003;8.032597834244371E-004;
2.412500000000000E+009;1.806795448064804E-001;-4.162669181823731E-002;-1.345176366157830E-003;8.565616444684565E-004;
2.412666666666667E+009;1.801801323890686E-001;-4.231092333793640E-002;-1.320859300903976E-003;9.629001724533737E-004;
2.412833333333334E+009;1.793923228979111E-001;-4.249518364667893E-002;-1.606637029908598E-003;1.028623548336327E-003;
2.413000000000000E+009;1.785131543874741E-001;-4.282354936003685E-002;-1.750978757627308E-003;9.978011948987842E-004;
2.413166666666667E+009;1.777252852916718E-001;-4.329443350434303E-002;-1.822336809709668E-003;1.114872866310179E-003;
2.413333333333334E+009;1.767093241214752E-001;-4.370072111487389E-002;-1.845532795414329E-003;1.205417793244124E-003;
2.413500000000000E+009;1.757714599370956E-001;-4.425412043929100E-002;-2.103940350934863E-003;1.270215376280248E-003;
2.413666666666667E+009;1.746928095817566E-001;-4.491885751485825E-002;-2.212380990386009E-003;1.521711586974561E-003;
2.413833333333334E+009;1.736370176076889E-001;-4.550980031490326E-002;-2.301800763234496E-003;1.386237796396017E-003;
2.414000000000000E+009;1.722813844680786E-001;-4.610839113593102E-002;-2.320994390174747E-003;1.766346977092326E-003;
2.414166666666667E+009;1.712641566991806E-001;-4.686765372753143E-002;-2.445543883368373E-003;2.096396870911121E-003;
2.414333333333334E+009;1.702083498239517E-001;-4.773912578821182E-002;-2.464283490553498E-003;2.232460537925363E-003;
2.414500000000000E+009;1.691205501556397E-001;-4.848908260464668E-002;-2.430927008390427E-003;2.366175409406424E-003;
2.414666666666667E+009;1.677452027797699E-001;-4.957769811153412E-002;-2.429109532386065E-003;2.797153778374195E-003;
2.414833333333334E+009;1.664604097604752E-001;-5.066985264420509E-002;-2.435953123494983E-003;2.982454374432564E-003;
2.415000000000000E+009;1.652905195951462E-001;-5.182130262255669E-002;-2.215009648352861E-003;3.248950699344277E-003;
2.415166666666667E+009;1.640740334987640E-001;-5.315044149756432E-002;-2.231154125183821E-003;3.593383124098182E-003;
2.415333333333334E+009;1.630251854658127E-001;-5.451160669326782E-002;-1.985623966902494E-003;3.784767352044582E-003;
2.415500000000000E+009;1.618373692035675E-001;-5.595434829592705E-002;-1.815835712477565E-003;3.995514474809170E-003;
2.415666666666667E+009;1.607512980699539E-001;-5.748166888952255E-002;-1.541150268167257E-003;4.335538484156132E-003;
2.415833333333334E+009;1.597167998552322E-001;-5.913602933287621E-002;-1.343564363196492E-003;4.501825664192438E-003;
2.416000000000000E+009;1.585072129964829E-001;-6.105084344744682E-002;-1.076345681212843E-003;4.640647675842047E-003;
2.416166666666667E+009;1.577337980270386E-001;-6.259540468454361E-002;-6.955482531338930E-004;4.786240868270397E-003;
2.416333333333334E+009;1.566286087036133E-001;-6.449662148952484E-002;-6.456891424022615E-004;4.969945643097162E-003;
2.416500000000000E+009;1.557353436946869E-001;-6.640895456075668E-002;-4.509488062467426E-004;4.954710137099028E-003;
2.416666666666667E+009;1.548188775777817E-001;-6.830970197916031E-002;-3.916201967513189E-005;4.965445958077908E-003;
2.416833333333334E+009;1.541837006807327E-001;-7.043737918138504E-002;3.344994038343430E-004;5.018485710024834E-003;
2.417000000000000E+009;1.532892733812332E-001;-7.229740172624588E-002;5.570094799622893E-004;5.056813359260559E-003;
2.417166666666667E+009;1.526542156934738E-001;-7.422488182783127E-002;9.541483595967293E-004;4.992531146854162E-003;
2.417333333333334E+009;1.520839035511017E-001;-7.604669779539108E-002;1.078842207789421E-003;5.055623129010201E-003;
2.417500000000000E+009;1.516003608703613E-001;-7.826908677816391E-002;1.566209481097758E-003;5.049950443208218E-003;
2.417666666666667E+009;1.512957215309143E-001;-7.996650040149689E-002;1.727253082208335E-003;4.886889830231667E-003;
2.417833333333334E+009;1.507961899042130E-001;-8.192588388919830E-002;1.982395770028234E-003;4.797406028956175E-003;
2.418000000000000E+009;1.503745019435883E-001;-8.369966596364975E-002;2.303269691765308E-003;4.713786765933037E-003;
2.418166666666667E+009;1.501907259225845E-001;-8.536326885223389E-002;2.457712311297655E-003;4.653709009289742E-003;
2.418333333333334E+009;1.502200961112976E-001;-8.712615817785263E-002;2.742545446380973E-003;4.382233601063490E-003;
2.418500000000000E+009;1.499211192131043E-001;-8.878280222415924E-002;3.140796441584826E-003;4.222612362354994E-003;
2.418666666666667E+009;1.499916613101959E-001;-9.030707925558090E-002;3.159091109409928E-003;4.092536866664887E-003;
2.418833333333334E+009;1.498501747846603E-001;-9.176477044820786E-002;3.373543499037623E-003;3.752293298020959E-003;
2.419000000000000E+009;1.499026864767075E-001;-9.293702989816666E-002;3.451132681220770E-003;3.569335443899036E-003;
2.419166666666667E+009;1.499712765216827E-001;-9.423877298831940E-002;3.498804988339543E-003;3.314249916002154E-003;
2.419333333333334E+009;1.499704867601395E-001;-9.513429552316666E-002;3.692783182486892E-003;3.092837287113071E-003;
2.419500000000000E+009;1.503642350435257E-001;-9.625623375177383E-002;3.753064665943384E-003;2.825932111591101E-003;
2.419666666666667E+009;1.506160348653793E-001;-9.717811644077301E-002;3.658739384263754E-003;2.694404684007168E-003;
2.419833333333334E+009;1.507213860750198E-001;-9.771867841482163E-002;3.875115886330605E-003;2.635932294651866E-003;
2.420000000000000E+009;1.510319113731384E-001;-9.851446747779846E-002;4.008817952126265E-003;2.542371628805995E-003;
2.420166666666667E+009;1.512532532215118E-001;-9.897789359092712E-002;3.978420514613390E-003;2.314888872206211E-003;
2.420333333333334E+009;1.515975594520569E-001;-9.948947280645371E-002;3.876259317621589E-003;2.224574098363519E-003;
2.420500000000000E+009;1.518827080726624E-001;-9.957072883844376E-002;3.988044802099466E-003;1.973346341401339E-003;
2.420666666666667E+009;1.521694809198380E-001;-9.976731240749359E-002;4.000757355242968E-003;1.904360484331846E-003;
2.420833333333334E+009;1.524780839681625E-001;-1.000121980905533E-001;4.097315948456526E-003;1.842112047597766E-003;
2.421000000000000E+009;1.527548879384995E-001;-1.001167446374893E-001;4.176358226686716E-003;1.628639292903245E-003;
2.421166666666667E+009;1.528361588716507E-001;-1.000187918543816E-001;4.108096938580275E-003;1.532810041680932E-003;
2.421333333333334E+009;1.531936973333359E-001;-9.991722553968430E-002;4.342813044786453E-003;1.405111746862531E-003;
2.421500000000000E+009;1.531078517436981E-001;-9.971934556961060E-002;4.090739879757166E-003;1.276887720450759E-003;
2.421666666666667E+009;1.531574577093124E-001;-9.966011345386505E-002;4.292992874979973E-003;1.125606824643910E-003;
2.421833333333334E+009;1.531275063753128E-001;-9.933378547430039E-002;4.419567529112101E-003;8.166287443600595E-004;
2.422000000000000E+009;1.528712809085846E-001;-9.909332543611527E-002;4.561709705740213E-003;8.791318978182972E-004;
2.422166666666667E+009;1.526054888963699E-001;-9.891275316476822E-002;4.507116042077541E-003;6.290412275120616E-004;
2.422333333333334E+009;1.523278802633286E-001;-9.862746298313141E-002;4.503674339503050E-003;4.495040338952094E-004;
2.422500000000000E+009;1.517320275306702E-001;-9.814476221799851E-002;4.477477632462978E-003;3.408346965443343E-004;
2.422666666666667E+009;1.510298401117325E-001;-9.785232692956924E-002;4.439212381839752E-003;1.839753822423518E-004;
2.422833333333334E+009;1.503562927246094E-001;-9.769660234451294E-002;4.430043045431376E-003;-2.171184023609385E-004;
2.423000000000000E+009;1.495570689439774E-001;-9.723353385925293E-002;4.364256747066975E-003;-2.063384745270014E-004;
2.423166666666667E+009;1.485549211502075E-001;-9.688196331262589E-002;4.413655027747154E-003;-3.006242914125323E-004;
2.423333333333334E+009;1.475568562746048E-001;-9.640447050333023E-002;4.386775195598602E-003;-4.408732638694346E-004;
2.423500000000000E+009;1.463613510131836E-001;-9.602564573287964E-002;4.324126988649368E-003;-5.494643701240420E-004;
2.423666666666667E+009;1.451380103826523E-001;-9.585281461477280E-002;4.357003141194582E-003;-6.923722685314715E-004;
2.423833333333334E+009;1.440089195966721E-001;-9.550968557596207E-002;4.357795231044292E-003;-8.979908307082951E-004;
2.424000000000000E+009;1.425137221813202E-001;-9.519791603088379E-002;4.403804428875446E-003;-1.079243840649724E-003;
2.424166666666667E+009;1.410123407840729E-001;-9.503307938575745E-002;4.199323710054159E-003;-1.119401305913925E-003;
2.424333333333334E+009;1.397441178560257E-001;-9.483795613050461E-002;4.293158184736967E-003;-1.158010913059115E-003;
2.424500000000000E+009;1.382512003183365E-001;-9.494478255510330E-002;4.286248236894608E-003;-1.470264396630228E-003;
2.424666666666667E+009;1.370353847742081E-001;-9.489082545042038E-002;4.159302450716496E-003;-1.674914732575417E-003;
2.424833333333334E+009;1.353484541177750E-001;-9.502567350864410E-002;3.964938689023256E-003;-1.927446690388024E-003;
2.425000000000000E+009;1.339594274759293E-001;-9.548443555831909E-002;3.964325878769159E-003;-2.057820325717330E-003;
2.425166666666667E+009;1.322516500949860E-001;-9.594459086656570E-002;3.833147697150707E-003;-2.020542044192553E-003;
2.425333333333334E+009;1.308242380619049E-001;-9.644966572523117E-002;3.833707422018051E-003;-2.351010451093316E-003;
2.425500000000000E+009;1.295924037694931E-001;-9.706690162420273E-002;3.726928494870663E-003;-2.503683557733893E-003;
2.425666666666667E+009;1.279056072235107E-001;-9.795085340738297E-002;3.594510490074754E-003;-2.428599400445819E-003;
2.425833333333334E+009;1.266270875930786E-001;-9.887729585170746E-002;3.547250526025891E-003;-2.779658185318112E-003;
2.426000000000000E+009;1.251274943351746E-001;-9.982930123806000E-002;3.333112923428416E-003;-2.876623533666134E-003;
2.426166666666667E+009;1.239553913474083E-001;-1.011000648140907E-001;3.162858542054892E-003;-2.764212433248758E-003;
2.426333333333334E+009;1.225449517369270E-001;-1.021778583526611E-001;2.915818011388183E-003;-2.671418478712440E-003;
2.426500000000000E+009;1.213298141956329E-001;-1.035239472985268E-001;2.878913655877113E-003;-2.733552129939199E-003;
2.426666666666667E+009;1.202328056097031E-001;-1.047478988766670E-001;2.675208961591125E-003;-2.908691531047225E-003;
2.426833333333334E+009;1.191341057419777E-001;-1.064278930425644E-001;2.713865367695689E-003;-3.012969857081771E-003;
2.427000000000000E+009;1.181516498327255E-001;-1.079846546053886E-001;2.411839785054326E-003;-3.022453282028437E-003;
2.427166666666667E+009;1.171045601367950E-001;-1.094417497515678E-001;2.450862666592002E-003;-3.016264177858830E-003;
2.427333333333334E+009;1.162166148424149E-001;-1.112128421664238E-001;2.204553456977010E-003;-2.950160764157772E-003;
2.427500000000000E+009;1.154949367046356E-001;-1.129615008831024E-001;2.154006855562329E-003;-3.063191426917911E-003;
2.427666666666667E+009;1.147564277052879E-001;-1.147869154810906E-001;2.075128257274628E-003;-2.871465869247913E-003;
