# Version 1.00
#
freq[Hz];re:Trc1_S11;im:Trc1_S11;re:Trc2_S21;im:Trc2_S21;
2.400000000000000E+009;1.573374122381210E-001;6.279765069484711E-002;-2.859547501429915E-003;6.222119089215994E-003;
2.400166666666667E+009;1.573652476072311E-001;6.138343736529350E-002;-2.510769525542855E-003;6.367111112922430E-003;
2.400333333333334E+009;1.571911424398422E-001;5.924005806446075E-002;-2.400074154138565E-003;6.501893512904644E-003;
2.400500000000000E+009;1.571488678455353E-001;5.731658264994621E-002;-2.044237451627851E-003;6.496184505522251E-003;
2.400666666666667E+009;1.571788787841797E-001;5.533604323863983E-002;-1.724670990370214E-003;6.566166877746582E-003;
2.400833333333334E+009;1.574135571718216E-001;5.334042385220528E-002;-1.417218009009957E-003;6.606446579098702E-003;
2.401000000000000E+009;1.574213504791260E-001;5.126955732703209E-002;-1.115443301387131E-003;6.604861468076706E-003;
2.401166666666667E+009;1.575274169445038E-001;4.912581667304039E-002;-8.979339618235827E-004;6.640252657234669E-003;
2.401333333333334E+009;1.576444953680039E-001;4.691857099533081E-002;-6.246368284337223E-004;6.729503627866507E-003;
2.401500000000000E+009;1.581497639417648E-001;4.502439126372337E-002;-3.517790173646063E-004;6.695137824863195E-003;
2.401666666666667E+009;1.583927571773529E-001;4.293795675039291E-002;3.071809260291047E-006;6.851843558251858E-003;
2.401833333333334E+009;1.589049398899078E-001;4.076720774173737E-002;2.975488896481693E-004;6.673653144389391E-003;
2.402000000000000E+009;1.592156291007996E-001;3.873065114021301E-002;4.483986122068018E-004;6.736919283866882E-003;
2.402166666666667E+009;1.599091887474060E-001;3.674859181046486E-002;7.631559274159372E-004;6.814794149249792E-003;
2.402333333333334E+009;1.605599671602249E-001;3.479943051934242E-002;1.021735253743827E-003;6.557850632816553E-003;
2.402500000000000E+009;1.614193469285965E-001;3.311822190880776E-002;1.338060479611158E-003;6.419882178306580E-003;
2.402666666666667E+009;1.619822978973389E-001;3.129553049802780E-002;1.508209155872464E-003;6.437500938773155E-003;
2.402833333333334E+009;1.627415567636490E-001;2.961302921175957E-002;1.839101314544678E-003;6.437569390982390E-003;
2.403000000000000E+009;1.636335402727127E-001;2.810730785131455E-002;2.056905301287770E-003;6.295556202530861E-003;
2.403166666666667E+009;1.647665798664093E-001;2.640706859529018E-002;2.292025135830045E-003;6.289366167038679E-003;
2.403333333333334E+009;1.655416935682297E-001;2.513263560831547E-002;2.522556111216545E-003;6.002546288073063E-003;
2.403500000000000E+009;1.663991063833237E-001;2.366176247596741E-002;2.812530146911740E-003;5.861510988324881E-003;
2.403666666666667E+009;1.674590557813644E-001;2.233146131038666E-002;2.921948907896876E-003;5.685245152562857E-003;
2.403833333333334E+009;1.686587184667587E-001;2.101877145469189E-002;3.271244466304779E-003;5.587931722402573E-003;
2.404000000000000E+009;1.695031374692917E-001;1.992120593786240E-002;3.680227790027857E-003;5.446781869977713E-003;
2.404166666666667E+009;1.705957949161530E-001;1.878003403544426E-002;3.583695041015744E-003;5.295515991747379E-003;
2.404333333333334E+009;1.715620756149292E-001;1.800668053328991E-002;3.794264979660511E-003;5.244245287030935E-003;
2.404500000000000E+009;1.724354475736618E-001;1.681453548371792E-002;4.017217084765434E-003;4.853768739849329E-003;
2.404666666666667E+009;1.733760088682175E-001;1.595030911266804E-002;4.233156330883503E-003;4.767071455717087E-003;
2.404833333333334E+009;1.744286417961121E-001;1.523341424763203E-002;4.381864797323942E-003;4.529679659754038E-003;
2.405000000000000E+009;1.754268258810043E-001;1.460635848343372E-002;4.524130374193192E-003;4.379468504339457E-003;
2.405166666666667E+009;1.761576980352402E-001;1.401702873408794E-002;4.741436336189508E-003;4.289792384952307E-003;
2.405333333333334E+009;1.769709885120392E-001;1.332281157374382E-002;4.888453986495733E-003;4.002688918262720E-003;
2.405500000000000E+009;1.776254624128342E-001;1.297883223742247E-002;4.972091410309076E-003;3.700227709487081E-003;
2.405666666666667E+009;1.783756911754608E-001;1.251476723700762E-002;5.104125943034887E-003;3.607718739658594E-003;
2.405833333333334E+009;1.790070384740830E-001;1.235015317797661E-002;5.300650373101234E-003;3.312684129923582E-003;
2.406000000000000E+009;1.794265806674957E-001;1.180531084537506E-002;5.346412770450115E-003;3.131034085527062E-003;
2.406166666666667E+009;1.796703040599823E-001;1.174053084105253E-002;5.441580433398485E-003;2.817868953570724E-003;
2.406333333333334E+009;1.803625971078873E-001;1.136858854442835E-002;5.605266895145178E-003;2.594151301309466E-003;
2.406500000000000E+009;1.805566698312759E-001;1.094977930188179E-002;5.742097273468971E-003;2.499893540516496E-003;
2.406666666666667E+009;1.806060671806335E-001;1.092817727476358E-002;5.717101041227579E-003;2.270909026265144E-003;
2.406833333333334E+009;1.808197498321533E-001;1.050724647939205E-002;5.919849965721369E-003;1.946368254721165E-003;
2.407000000000000E+009;1.808423548936844E-001;1.020760275423527E-002;5.898956675082445E-003;1.734603312797844E-003;
2.407166666666667E+009;1.808916181325913E-001;9.894591756165028E-003;5.919579882174730E-003;1.506343949586153E-003;
2.407333333333334E+009;1.806849688291550E-001;9.564426727592945E-003;6.141969002783299E-003;1.258471398614347E-003;
2.407500000000000E+009;1.806520670652390E-001;9.187392890453339E-003;5.999174900352955E-003;1.061916118487716E-003;
2.407666666666667E+009;1.803715080022812E-001;8.796966634690762E-003;5.999209824949503E-003;8.188150823116303E-004;
2.407833333333334E+009;1.797738969326019E-001;8.181540295481682E-003;6.103713065385819E-003;4.987600841559470E-004;
2.408000000000000E+009;1.796000599861145E-001;7.462467532604933E-003;6.153378169983625E-003;2.745618694461882E-004;
2.408166666666667E+009;1.790879964828491E-001;7.008712738752365E-003;6.043914239853621E-003;-3.159952029818669E-005;
2.408333333333334E+009;1.786496639251709E-001;6.231044419109821E-003;5.961614660918713E-003;-3.496542340144515E-004;
2.408500000000000E+009;1.779322177171707E-001;5.376117303967476E-003;5.993465427309275E-003;-5.235497956164181E-004;
2.408666666666667E+009;1.774151176214218E-001;4.353013820946217E-003;5.992825143039227E-003;-7.354928529821336E-004;
2.408833333333334E+009;1.766944825649262E-001;3.450900316238403E-003;5.795466247946024E-003;-1.049820799380541E-003;
2.409000000000000E+009;1.759576201438904E-001;2.490289974957705E-003;5.739538930356503E-003;-1.292897970415652E-003;
2.409166666666667E+009;1.752782464027405E-001;1.386984135024250E-003;5.604740697890520E-003;-1.466352492570877E-003;
2.409333333333334E+009;1.745184957981110E-001;-1.362860075460048E-006;5.500000435858965E-003;-1.719500403851271E-003;
2.409500000000000E+009;1.739001125097275E-001;-1.533079775981605E-003;5.444007460027933E-003;-2.036093268543482E-003;
2.409666666666667E+009;1.731336563825607E-001;-2.862637396901846E-003;5.275710951536894E-003;-2.141897799447179E-003;
2.409833333333334E+009;1.723737269639969E-001;-4.216663539409638E-003;5.178152117878199E-003;-2.172806300222874E-003;
2.410000000000000E+009;1.719640046358109E-001;-5.750846583396196E-003;5.005057435482740E-003;-2.530131954699755E-003;
2.410166666666667E+009;1.710871011018753E-001;-7.348756771534681E-003;5.101148504763842E-003;-2.763456432148814E-003;
2.410333333333334E+009;1.706490218639374E-001;-9.222076274454594E-003;4.820263944566250E-003;-2.855689032003284E-003;
2.410500000000000E+009;1.700374931097031E-001;-1.084056589752436E-002;4.781214520335197E-003;-3.045112127438188E-003;
2.410666666666667E+009;1.694685667753220E-001;-1.278978027403355E-002;4.574940539896488E-003;-3.219211706891656E-003;
2.410833333333334E+009;1.692449599504471E-001;-1.452915091067553E-002;4.377818666398525E-003;-3.296584123745561E-003;
2.411000000000000E+009;1.686981171369553E-001;-1.642573066055775E-002;4.263280890882015E-003;-3.494066884741187E-003;
2.411166666666667E+009;1.684114784002304E-001;-1.843989081680775E-002;3.901081858202815E-003;-3.810505149886012E-003;
2.411333333333334E+009;1.680970191955566E-001;-2.048247493803501E-002;3.807533066719770E-003;-3.799882950261235E-003;
2.411500000000000E+009;1.678472012281418E-001;-2.260581962764263E-002;3.598171984776855E-003;-3.964506555348635E-003;
2.411666666666667E+009;1.680781692266464E-001;-2.455809898674488E-002;3.514939220622182E-003;-4.061787854880095E-003;
2.411833333333334E+009;1.679050028324127E-001;-2.631646953523159E-002;3.228166839107871E-003;-4.157309886068106E-003;
2.412000000000000E+009;1.681136488914490E-001;-2.839441411197186E-002;2.994857262820005E-003;-4.305027425289154E-003;
2.412166666666667E+009;1.680765151977539E-001;-3.038568422198296E-002;2.792769111692905E-003;-4.592949058860540E-003;
2.412333333333334E+009;1.684055924415588E-001;-3.235750645399094E-002;2.555840415880084E-003;-4.569953773170710E-003;
2.412500000000000E+009;1.687124520540237E-001;-3.426178172230721E-002;2.235078020021319E-003;-4.499605856835842E-003;
2.412666666666667E+009;1.690033227205277E-001;-3.630061075091362E-002;2.194750355556607E-003;-4.787095822393894E-003;
2.412833333333334E+009;1.693232506513596E-001;-3.811234608292580E-002;1.961571630090475E-003;-4.591975826770067E-003;
2.413000000000000E+009;1.697762310504913E-001;-3.990244492888451E-002;1.651876838877797E-003;-4.742754157632589E-003;
2.413166666666667E+009;1.703090369701386E-001;-4.170345515012741E-002;1.472185133025050E-003;-4.786262288689613E-003;
2.413333333333334E+009;1.706369966268539E-001;-4.332432523369789E-002;1.017344999127090E-003;-4.866927396506071E-003;
2.413500000000000E+009;1.711519807577133E-001;-4.513046890497208E-002;1.056646229699254E-003;-4.980870988219976E-003;
2.413666666666667E+009;1.718578636646271E-001;-4.644278064370155E-002;8.224853663705289E-004;-4.831826779991388E-003;
2.413833333333334E+009;1.725153923034668E-001;-4.799597710371018E-002;4.143799887970090E-004;-5.021081771701574E-003;
2.414000000000000E+009;1.729844063520432E-001;-4.938657581806183E-002;2.295121084898710E-004;-4.728736821562052E-003;
2.414166666666667E+009;1.736064553260803E-001;-5.064758658409119E-002;-5.203175169299357E-005;-4.785696510225534E-003;
2.414333333333334E+009;1.740697473287582E-001;-5.182647705078125E-002;-2.927016757894307E-004;-4.541188478469849E-003;
2.414500000000000E+009;1.747821569442749E-001;-5.303058773279190E-002;-4.410318797454238E-004;-4.571929574012756E-003;
2.414666666666667E+009;1.753877252340317E-001;-5.399794876575470E-002;-6.619048072025180E-004;-4.563194699585438E-003;
2.414833333333334E+009;1.757420003414154E-001;-5.502905324101448E-002;-9.055209229700267E-004;-4.366988781839609E-003;
2.415000000000000E+009;1.761248707771301E-001;-5.579581484198570E-002;-1.111963763833046E-003;-4.355754703283310E-003;
2.415166666666667E+009;1.766236126422882E-001;-5.646407604217529E-002;-1.318304915912449E-003;-4.051876720041037E-003;
2.415333333333334E+009;1.771772801876068E-001;-5.720825120806694E-002;-1.591029344126582E-003;-3.994257654994726E-003;
2.415500000000000E+009;1.774778068065643E-001;-5.770738795399666E-002;-1.701784785836935E-003;-3.729799296706915E-003;
2.415666666666667E+009;1.777355074882507E-001;-5.817409232258797E-002;-1.792335882782936E-003;-3.696075873449445E-003;
2.415833333333334E+009;1.779805123806000E-001;-5.879291146993637E-002;-1.925130258314312E-003;-3.495424287393689E-003;
2.416000000000000E+009;1.780107915401459E-001;-5.903791636228561E-002;-2.150170505046845E-003;-3.367392811924219E-003;
2.416166666666667E+009;1.781030148267746E-001;-5.942707881331444E-002;-2.127750078216195E-003;-3.139613661915064E-003;
2.416333333333334E+009;1.780854165554047E-001;-5.966361239552498E-002;-2.306454582139850E-003;-3.008030354976654E-003;
2.416500000000000E+009;1.779558509588242E-001;-5.990992113947868E-002;-2.375207841396332E-003;-2.789182122796774E-003;
2.416666666666667E+009;1.777867227792740E-001;-6.017465516924858E-002;-2.652609487995505E-003;-2.522863214835525E-003;
2.416833333333334E+009;1.776049733161926E-001;-6.049890443682671E-002;-2.526364056393504E-003;-2.211122540757060E-003;
2.417000000000000E+009;1.769950538873673E-001;-6.071605533361435E-002;-2.529931953176856E-003;-2.210168400779367E-003;
2.417166666666667E+009;1.766022145748138E-001;-6.075480580329895E-002;-2.590674674138427E-003;-2.060194732621312E-003;
2.417333333333334E+009;1.761235147714615E-001;-6.079271435737610E-002;-2.404120285063982E-003;-1.879541203379631E-003;
2.417500000000000E+009;1.753090918064117E-001;-6.115385144948959E-002;-2.517172135412693E-003;-1.677310327067971E-003;
2.417666666666667E+009;1.747371852397919E-001;-6.125391647219658E-002;-2.536250744014978E-003;-1.414720900356770E-003;
2.417833333333334E+009;1.739092171192169E-001;-6.146311759948731E-002;-2.437979215756059E-003;-1.331568928435445E-003;
2.418000000000000E+009;1.728790849447250E-001;-6.185235083103180E-002;-2.510132500901818E-003;-1.184754190035164E-003;
2.418166666666667E+009;1.719998270273209E-001;-6.190023198723793E-002;-2.412370638921857E-003;-1.107513904571533E-003;
2.418333333333334E+009;1.711486279964447E-001;-6.242339685559273E-002;-2.373168710619211E-003;-9.518360602669418E-004;
2.418500000000000E+009;1.701128035783768E-001;-6.284675002098084E-002;-2.432829234749079E-003;-8.501169504597783E-004;
2.418666666666667E+009;1.690153926610947E-001;-6.336967647075653E-002;-2.192669548094273E-003;-7.407507509924471E-004;
2.418833333333334E+009;1.675793081521988E-001;-6.386693567037582E-002;-2.285620430484414E-003;-6.580333574675024E-004;
2.419000000000000E+009;1.663007140159607E-001;-6.441091001033783E-002;-2.293473808094859E-003;-5.982896545901895E-004;
2.419166666666667E+009;1.652916073799133E-001;-6.513759493827820E-002;-2.101240446791053E-003;-4.133690381422639E-004;
2.419333333333334E+009;1.639117896556854E-001;-6.569970399141312E-002;-2.024130197241902E-003;-4.334385448601097E-004;
2.419500000000000E+009;1.627438068389893E-001;-6.673928350210190E-002;-1.993470359593630E-003;-3.632746520452201E-004;
2.419666666666667E+009;1.615838110446930E-001;-6.758206337690353E-002;-1.971588004380465E-003;-2.508728066459298E-004;
2.419833333333334E+009;1.604513376951218E-001;-6.830594688653946E-002;-1.880861469544470E-003;-2.282827626913786E-004;
2.420000000000000E+009;1.591844707727432E-001;-6.960798054933548E-002;-1.880776486359537E-003;-2.141896984539926E-004;
2.420166666666667E+009;1.580429524183273E-001;-7.082426548004150E-002;-1.598841627128422E-003;-8.110898488666862E-005;
2.420333333333334E+009;1.570879667997360E-001;-7.190624624490738E-002;-1.707741641439498E-003;-9.113662963500246E-005;
2.420500000000000E+009;1.561205983161926E-001;-7.302241772413254E-002;-1.619435148313642E-003;9.767326264409348E-005;
2.420666666666667E+009;1.550573110580444E-001;-7.440095394849777E-002;-1.608770922757685E-003;-4.931827425025404E-005;
2.420833333333334E+009;1.540463119745255E-001;-7.582929730415344E-002;-1.549256732687354E-003;-2.909238446591189E-006;
2.421000000000000E+009;1.531737446784973E-001;-7.741037011146545E-002;-1.427181879989803E-003;1.832002308219671E-004;
2.421166666666667E+009;1.525616198778153E-001;-7.897159457206726E-002;-1.402667840011418E-003;2.220034548372496E-005;
2.421333333333334E+009;1.518752127885819E-001;-8.061019331216812E-002;-1.352340448647738E-003;7.783718319842592E-005;
2.421500000000000E+009;1.511749476194382E-001;-8.204736560583115E-002;-1.187919871881604E-003;1.628580648684874E-004;
2.421666666666667E+009;1.508493572473526E-001;-8.378569036722183E-002;-1.144770067185164E-003;5.320964919519611E-005;
2.421833333333334E+009;1.503939032554627E-001;-8.558767288923264E-002;-1.049642567522824E-003;2.845975977834314E-004;
2.422000000000000E+009;1.498591601848602E-001;-8.714342862367630E-002;-1.283401506952941E-003;2.553394297137857E-004;
2.422166666666667E+009;1.496570855379105E-001;-8.914145082235336E-002;-9.501936729066074E-004;2.960285637527704E-004;
2.422333333333334E+009;1.495802402496338E-001;-9.075557440519333E-002;-1.042581861838698E-003;1.478967169532552E-004;
2.422500000000000E+009;1.494194269180298E-001;-9.226757287979126E-002;-1.079391222447157E-003;2.505106385797262E-004;
2.422666666666667E+009;1.494124531745911E-001;-9.415186196565628E-002;-9.837780380621553E-004;2.614504483062774E-004;
2.422833333333334E+009;1.495307534933090E-001;-9.602549672126770E-002;-9.739683591760695E-004;2.610124356579036E-004;
2.423000000000000E+009;1.496816426515579E-001;-9.768056869506836E-002;-8.916110382415354E-004;3.539241733960807E-004;
2.423166666666667E+009;1.499466300010681E-001;-9.923890233039856E-002;-9.555011638440192E-004;3.462726890575141E-004;
2.423333333333334E+009;1.502643823623657E-001;-1.007740497589111E-001;-7.889558328315616E-004;2.027196460403502E-004;
2.423500000000000E+009;1.506669968366623E-001;-1.023009940981865E-001;-8.810787694528699E-004;2.954936644528061E-004;
2.423666666666667E+009;1.508354693651199E-001;-1.040182262659073E-001;-8.159992867149413E-004;2.263210044475272E-004;
2.423833333333334E+009;1.514866203069687E-001;-1.053514257073402E-001;-8.308927062898874E-004;3.843668382614851E-004;
2.424000000000000E+009;1.517442017793655E-001;-1.067148670554161E-001;-7.333410903811455E-004;3.248208086006343E-004;
2.424166666666667E+009;1.522674709558487E-001;-1.080446317791939E-001;-7.089864811860025E-004;3.272404137533158E-004;
2.424333333333334E+009;1.527503579854965E-001;-1.092079579830170E-001;-8.227166836149991E-004;3.303175035398454E-004;
2.424500000000000E+009;1.532278209924698E-001;-1.104982122778893E-001;-6.611524731852114E-004;4.682256549131125E-004;
2.424666666666667E+009;1.538365632295609E-001;-1.112867370247841E-001;-4.575898346956819E-004;5.832490860484541E-004;
2.424833333333334E+009;1.542333960533142E-001;-1.124019920825958E-001;-3.497425641398877E-004;4.893015720881522E-004;
2.425000000000000E+009;1.547590494155884E-001;-1.132857576012611E-001;-3.209566639270634E-004;5.662407493218780E-004;
2.425166666666667E+009;1.550701707601547E-001;-1.141401752829552E-001;-4.261581052560359E-004;3.648304846137762E-004;
2.425333333333334E+009;1.554698050022125E-001;-1.148834303021431E-001;-2.145398466382176E-004;3.895318077411503E-004;
2.425500000000000E+009;1.559909582138062E-001;-1.155096441507340E-001;-1.716550759738311E-004;4.485941317398101E-004;
2.425666666666667E+009;1.561720222234726E-001;-1.162696108222008E-001;-2.772676234599203E-004;4.133162728976458E-004;
2.425833333333334E+009;1.564781516790390E-001;-1.166075244545937E-001;-1.146515278378502E-004;2.846182906068862E-004;
2.426000000000000E+009;1.567041277885437E-001;-1.170514449477196E-001;-3.732291588676162E-005;3.611465799622238E-004;
2.426166666666667E+009;1.569685041904450E-001;-1.175614669919014E-001;-4.414999057189561E-005;3.782693820539862E-004;
2.426333333333334E+009;1.569632738828659E-001;-1.177804395556450E-001;-1.472897420171648E-004;2.545916941016913E-004;
2.426500000000000E+009;1.568306684494019E-001;-1.179156750440598E-001;9.781961853150278E-005;1.553647452965379E-004;
2.426666666666667E+009;1.570019721984863E-001;-1.179739832878113E-001;3.083963238168508E-004;8.536911627743393E-005;
2.426833333333334E+009;1.567131727933884E-001;-1.181511580944061E-001;1.876806636573747E-004;-2.732883149292320E-005;
2.427000000000000E+009;1.563813835382462E-001;-1.184698417782784E-001;3.510656242724508E-004;9.752097685122863E-005;
2.427166666666667E+009;1.559019237756729E-001;-1.184460967779160E-001;1.827670930651948E-004;-2.288929536007345E-004;
2.427333333333334E+009;1.554342806339264E-001;-1.185587793588638E-001;2.560323337092996E-004;-1.303805620409548E-004;
2.427500000000000E+009;1.549791544675827E-001;-1.186393946409226E-001;1.681425201240927E-004;-2.805437543429434E-004;
2.427666666666667E+009;1.542896628379822E-001;-1.188387498259544E-001;2.759124035947025E-004;-3.841127909254283E-004;
