# Version 1.00
#
freq[Hz];re:Trc1_S11;im:Trc1_S11;re:Trc2_S21;im:Trc2_S21;
2.400000000000000E+009;1.554275900125504E-001;1.068786233663559E-001;-2.806379925459623E-003;-3.192824078723788E-003;
2.400166666666667E+009;1.552756726741791E-001;1.043513342738152E-001;-2.972005400806665E-003;-2.835431601852179E-003;
2.400333333333334E+009;1.551300585269928E-001;1.021815687417984E-001;-2.901116618886590E-003;-2.692011650651693E-003;
2.400500000000000E+009;1.552362889051437E-001;9.944763034582138E-002;-2.969580003991723E-003;-2.338068559765816E-003;
2.400666666666667E+009;1.552462130784988E-001;9.694477915763855E-002;-2.835588995367289E-003;-2.082213526591659E-003;
2.400833333333334E+009;1.552020609378815E-001;9.418916702270508E-002;-2.866650465875864E-003;-1.754740835167468E-003;
2.401000000000000E+009;1.554732024669647E-001;9.110184758901596E-002;-2.698134165257216E-003;-1.558719086460769E-003;
2.401166666666667E+009;1.553424149751663E-001;8.846013247966766E-002;-2.680274657905102E-003;-1.298554125241935E-003;
2.401333333333334E+009;1.558803915977478E-001;8.560331910848618E-002;-2.448670100420713E-003;-1.140502863563597E-003;
2.401500000000000E+009;1.564745604991913E-001;8.271127194166184E-002;-2.326156711205840E-003;-1.056166714988649E-003;
2.401666666666667E+009;1.566343307495117E-001;7.975564152002335E-002;-2.105851890519261E-003;-9.645090322010219E-004;
2.401833333333334E+009;1.570076942443848E-001;7.702051848173142E-002;-1.836295006796718E-003;-8.365017129108310E-004;
2.402000000000000E+009;1.581310331821442E-001;7.429619878530502E-002;-1.577408052980900E-003;-8.643817272968590E-004;
2.402166666666667E+009;1.587747931480408E-001;7.162889838218689E-002;-1.675356761552393E-003;-9.196428582072258E-004;
2.402333333333334E+009;1.598789989948273E-001;6.891426444053650E-002;-1.594378263689578E-003;-1.098132459446788E-003;
2.402500000000000E+009;1.609800308942795E-001;6.624735891819000E-002;-1.465725712478161E-003;-1.053755171597004E-003;
2.402666666666667E+009;1.621130406856537E-001;6.397529691457748E-002;-1.685639726929367E-003;-1.161888823844492E-003;
2.402833333333334E+009;1.636026799678803E-001;6.151049211621285E-002;-1.526119420304894E-003;-1.129737356677651E-003;
2.403000000000000E+009;1.648315191268921E-001;5.904439464211464E-002;-1.441125874407589E-003;-1.057464745827019E-003;
2.403166666666667E+009;1.667084246873856E-001;5.696668103337288E-002;-1.634622109122574E-003;-1.288777915760875E-003;
2.403333333333334E+009;1.679813414812088E-001;5.461418628692627E-002;-1.673936843872070E-003;-1.097764237783849E-003;
2.403500000000000E+009;1.697912663221359E-001;5.255601182579994E-002;-1.708774594590068E-003;-1.189531642012298E-003;
2.403666666666667E+009;1.716431528329849E-001;5.063980072736740E-002;-1.699251821264625E-003;-1.257396885193884E-003;
2.403833333333334E+009;1.732471585273743E-001;4.876967519521713E-002;-1.821879297494888E-003;-9.235659381374717E-004;
2.404000000000000E+009;1.745950579643250E-001;4.680184647440910E-002;-1.935372012667358E-003;-8.604645845480263E-004;
2.404166666666667E+009;1.765101104974747E-001;4.544845968484879E-002;-1.805677660740912E-003;-6.995570147410035E-004;
2.404333333333334E+009;1.781626641750336E-001;4.402070119976997E-002;-1.636492786929011E-003;-6.637487676925957E-004;
2.404500000000000E+009;1.796684563159943E-001;4.243752732872963E-002;-1.697104773484170E-003;-5.983408191241324E-004;
2.404666666666667E+009;1.813108325004578E-001;4.140308126807213E-002;-1.669050194323063E-003;-6.468766951002181E-004;
2.404833333333334E+009;1.831205487251282E-001;4.041928425431252E-002;-1.513449591584504E-003;-5.919979885220528E-004;
2.405000000000000E+009;1.845123320817947E-001;3.977202996611595E-002;-1.494650612585247E-003;-6.547428201884031E-004;
2.405166666666667E+009;1.858989596366882E-001;3.887459635734558E-002;-1.293930923566222E-003;-6.204122328199446E-004;
2.405333333333334E+009;1.873570680618286E-001;3.853266313672066E-002;-1.399689121171832E-003;-6.054600235074759E-004;
2.405500000000000E+009;1.887113898992539E-001;3.799770027399063E-002;-1.240979763679206E-003;-8.026871364563704E-004;
2.405666666666667E+009;1.900451481342316E-001;3.770881146192551E-002;-1.258937641978264E-003;-8.956071687862277E-004;
2.405833333333334E+009;1.913402527570725E-001;3.740045428276062E-002;-1.385176205076277E-003;-6.313367630355060E-004;
2.406000000000000E+009;1.922580301761627E-001;3.726590052247047E-002;-1.327032921835780E-003;-7.842745981179178E-004;
2.406166666666667E+009;1.932676285505295E-001;3.706105053424835E-002;-1.387271448038518E-003;-7.969744037836790E-004;
2.406333333333334E+009;1.941769272089005E-001;3.712334483861923E-002;-1.297040143981576E-003;-8.147307671606541E-004;
2.406500000000000E+009;1.949089020490646E-001;3.709121793508530E-002;-1.431454322300851E-003;-9.154011495411396E-004;
2.406666666666667E+009;1.955460458993912E-001;3.716077283024788E-002;-1.568754902109504E-003;-9.176961029879749E-004;
2.406833333333334E+009;1.960791945457459E-001;3.729379922151566E-002;-1.409897929988802E-003;-6.466385093517602E-004;
2.407000000000000E+009;1.962998211383820E-001;3.743544593453407E-002;-1.522756530903280E-003;-9.381267591379583E-004;
2.407166666666667E+009;1.967756003141403E-001;3.725055977702141E-002;-1.514868461526930E-003;-8.381637744605541E-004;
2.407333333333334E+009;1.967038065195084E-001;3.739938884973526E-002;-1.502389088273048E-003;-9.454563842155039E-004;
2.407500000000000E+009;1.965249925851822E-001;3.746933862566948E-002;-1.623862306587398E-003;-8.150678477250040E-004;
2.407666666666667E+009;1.965177059173584E-001;3.740541264414787E-002;-1.614988665096462E-003;-9.431297658011317E-004;
2.407833333333334E+009;1.961736381053925E-001;3.728626668453217E-002;-1.534373266622424E-003;-1.016495749354363E-003;
2.408000000000000E+009;1.959362030029297E-001;3.714699298143387E-002;-1.639163121581078E-003;-7.700848509557545E-004;
2.408166666666667E+009;1.952587515115738E-001;3.687613457441330E-002;-1.743141794577241E-003;-9.448609198443592E-004;
2.408333333333334E+009;1.948239654302597E-001;3.641165047883987E-002;-1.657409477047622E-003;-8.968227775767446E-004;
2.408500000000000E+009;1.939691752195358E-001;3.610258921980858E-002;-1.766133471392095E-003;-9.714593761600554E-004;
2.408666666666667E+009;1.934130638837814E-001;3.547757491469383E-002;-1.849755877628923E-003;-1.019901246763766E-003;
2.408833333333334E+009;1.926376819610596E-001;3.479405120015144E-002;-1.873057452030480E-003;-9.339339449070394E-004;
2.409000000000000E+009;1.916919052600861E-001;3.392028808593750E-002;-1.995029626414180E-003;-9.652873268350959E-004;
2.409166666666667E+009;1.905997097492218E-001;3.297267481684685E-002;-2.049834001809359E-003;-1.010162872262299E-003;
2.409333333333334E+009;1.897708475589752E-001;3.202888742089272E-002;-2.207032870501280E-003;-9.015521500259638E-004;
2.409500000000000E+009;1.885658055543900E-001;3.082400187849999E-002;-2.178393537178636E-003;-9.793578647077084E-004;
2.409666666666667E+009;1.875173747539520E-001;2.933402918279171E-002;-2.339044818654656E-003;-8.817375637590885E-004;
2.409833333333334E+009;1.863455623388290E-001;2.783979289233685E-002;-2.364044310525060E-003;-8.132508373819292E-004;
2.410000000000000E+009;1.854274421930313E-001;2.609984390437603E-002;-2.353357151150703E-003;-6.833025254309177E-004;
2.410166666666667E+009;1.842929869890213E-001;2.444398030638695E-002;-2.442329889163375E-003;-6.193977897055447E-004;
2.410333333333334E+009;1.834766715764999E-001;2.261496707797051E-002;-2.538938773795962E-003;-5.614129477180541E-004;
2.410500000000000E+009;1.821220368146896E-001;2.059593610465527E-002;-2.692979061976075E-003;-5.594295798800886E-004;
2.410666666666667E+009;1.813574880361557E-001;1.847767084836960E-002;-2.747401827946305E-003;-3.574594447854906E-004;
2.410833333333334E+009;1.806416213512421E-001;1.637690328061581E-002;-2.705920953303576E-003;-1.098880820791237E-004;
2.411000000000000E+009;1.799889951944351E-001;1.393771450966597E-002;-2.793677849695087E-003;-1.408879907103255E-004;
2.411166666666667E+009;1.792249083518982E-001;1.193657144904137E-002;-2.746261423453689E-003;-7.553264731541276E-005;
2.411333333333334E+009;1.789780706167221E-001;9.347488172352314E-003;-2.628078684210777E-003;-1.154355777543970E-004;
2.411500000000000E+009;1.782684326171875E-001;7.084059529006481E-003;-2.668907633051276E-003;2.721707569435239E-004;
2.411666666666667E+009;1.780649572610855E-001;4.725936334580183E-003;-2.716825110837817E-003;6.122664490249008E-005;
2.411833333333334E+009;1.777980178594589E-001;2.294603735208511E-003;-2.615986624732614E-003;1.937365886988118E-004;
2.412000000000000E+009;1.780240088701248E-001;-2.855930652003735E-004;-2.781883813440800E-003;2.065103180939332E-004;
2.412166666666667E+009;1.778659969568253E-001;-2.665173960849643E-003;-2.684604609385133E-003;3.579742624424398E-004;
2.412333333333334E+009;1.782842874526978E-001;-5.161192268133164E-003;-2.803889103233814E-003;4.173545457888395E-004;
2.412500000000000E+009;1.786172688007355E-001;-7.641694974154234E-003;-2.772997831925750E-003;3.607793478295207E-004;
2.412666666666667E+009;1.790273040533066E-001;-1.011180132627487E-002;-2.924116095528007E-003;5.180664011277258E-004;
2.412833333333334E+009;1.796793341636658E-001;-1.253089960664511E-002;-2.894965233281255E-003;4.595112986862660E-004;
2.413000000000000E+009;1.804340183734894E-001;-1.479180715978146E-002;-3.036305774003267E-003;5.988348275423050E-004;
2.413166666666667E+009;1.812518984079361E-001;-1.692526414990425E-002;-3.015829715877771E-003;7.804841152392328E-004;
2.413333333333334E+009;1.823430508375168E-001;-1.945649646222591E-002;-3.097969572991133E-003;8.887255680747330E-004;
2.413500000000000E+009;1.831766068935394E-001;-2.163623459637165E-002;-3.157022176310420E-003;1.217843149788678E-003;
2.413666666666667E+009;1.844880133867264E-001;-2.373388409614563E-002;-3.052226267755032E-003;1.171771669760346E-003;
2.413833333333334E+009;1.854090243577957E-001;-2.573838829994202E-002;-3.122863126918674E-003;1.417426276020706E-003;
2.414000000000000E+009;1.865874528884888E-001;-2.769315242767334E-002;-3.139945678412914E-003;1.590788247995079E-003;
2.414166666666667E+009;1.879009455442429E-001;-2.936360612511635E-002;-3.110891440883279E-003;1.901960000395775E-003;
2.414333333333334E+009;1.889328062534332E-001;-3.142225742340088E-002;-2.985600614920259E-003;1.987159252166748E-003;
2.414500000000000E+009;1.903390288352966E-001;-3.279659524559975E-002;-2.961763180792332E-003;2.317966427654028E-003;
2.414666666666667E+009;1.914537847042084E-001;-3.433621674776077E-002;-2.679151948541403E-003;2.467836253345013E-003;
2.414833333333334E+009;1.925244629383087E-001;-3.570549190044403E-002;-2.610885770991445E-003;2.621795283630490E-003;
2.415000000000000E+009;1.937477737665176E-001;-3.690995275974274E-002;-2.622969914227724E-003;2.747295191511512E-003;
2.415166666666667E+009;1.948756426572800E-001;-3.810043632984161E-002;-2.393944421783090E-003;2.749420236796141E-003;
2.415333333333334E+009;1.960847228765488E-001;-3.889077901840210E-002;-2.206154866144061E-003;2.887147711589932E-003;
2.415500000000000E+009;1.973012685775757E-001;-3.970270231366158E-002;-1.894491026178002E-003;3.126543946564198E-003;
2.415666666666667E+009;1.982468366622925E-001;-4.050299525260925E-002;-1.705470029264689E-003;3.121081041172147E-003;
2.415833333333334E+009;1.990387588739395E-001;-4.106236621737480E-002;-1.465425477363169E-003;3.081998089328408E-003;
2.416000000000000E+009;1.999933719635010E-001;-4.153987765312195E-002;-1.141482382081449E-003;3.268208820372820E-003;
2.416166666666667E+009;2.007231712341309E-001;-4.220244660973549E-002;-1.125089591369033E-003;3.245601663365960E-003;
2.416333333333334E+009;2.013834863901138E-001;-4.235748574137688E-002;-9.655180620029569E-004;3.253848291933537E-003;
2.416500000000000E+009;2.017515748739243E-001;-4.260493442416191E-002;-7.323787431232631E-004;3.212185576558113E-003;
2.416666666666667E+009;2.020816951990128E-001;-4.283237084746361E-002;-6.888057105243206E-004;3.120060544461012E-003;
2.416833333333334E+009;2.023029774427414E-001;-4.284210503101349E-002;-6.127475062385202E-004;3.117837011814117E-003;
2.417000000000000E+009;2.024816572666168E-001;-4.298049211502075E-002;-2.897318045143038E-004;2.981462050229311E-003;
2.417166666666667E+009;2.020031064748764E-001;-4.279714822769165E-002;-2.890017931349576E-004;2.924148458987474E-003;
2.417333333333334E+009;2.018974125385284E-001;-4.260771349072456E-002;-3.611981810536236E-005;2.861747751012445E-003;
2.417500000000000E+009;2.016147971153259E-001;-4.260571300983429E-002;1.858250470831990E-005;2.715770388022065E-003;
2.417666666666667E+009;2.011649161577225E-001;-4.246453568339348E-002;2.151396765839309E-004;2.696063369512558E-003;
2.417833333333334E+009;2.007969766855240E-001;-4.215493053197861E-002;2.981521829497069E-004;2.639584708958864E-003;
2.418000000000000E+009;2.001639157533646E-001;-4.187060892581940E-002;3.304787969682366E-004;2.316517988219857E-003;
2.418166666666667E+009;1.992740184068680E-001;-4.189423099160194E-002;4.839288012590259E-004;2.431845990940929E-003;
2.418333333333334E+009;1.982816010713577E-001;-4.148984327912331E-002;5.507004680112004E-004;2.386874053627253E-003;
2.418500000000000E+009;1.973813623189926E-001;-4.164512827992439E-002;7.384635973721743E-004;2.268484095111489E-003;
2.418666666666667E+009;1.964718997478485E-001;-4.156748950481415E-002;6.435526884160936E-004;2.105132443830371E-003;
2.418833333333334E+009;1.951144486665726E-001;-4.156838357448578E-002;8.128131157718599E-004;1.924629556015134E-003;
2.419000000000000E+009;1.937349736690521E-001;-4.176055639982224E-002;8.967914618551731E-004;1.837131916545332E-003;
2.419166666666667E+009;1.924551576375961E-001;-4.218718782067299E-002;8.534122025594115E-004;1.659729052335024E-003;
2.419333333333334E+009;1.910791695117950E-001;-4.250527173280716E-002;8.038636879064143E-004;1.522856298834086E-003;
2.419500000000000E+009;1.896668821573257E-001;-4.311174154281616E-002;9.376735542900860E-004;1.274235080927610E-003;
2.419666666666667E+009;1.880283504724503E-001;-4.391661286354065E-002;9.091735119000077E-004;1.014704699628055E-003;
2.419833333333334E+009;1.864074766635895E-001;-4.443560540676117E-002;7.262215949594975E-004;8.592435624450445E-004;
2.420000000000000E+009;1.850084662437439E-001;-4.523212835192680E-002;5.598312127403915E-004;6.538978195749223E-004;
2.420166666666667E+009;1.834237873554230E-001;-4.633994773030281E-002;4.767821810673922E-004;4.979177028872073E-004;
2.420333333333334E+009;1.816862523555756E-001;-4.747112095355988E-002;2.621116582304239E-004;6.369447219185531E-004;
2.420500000000000E+009;1.799950599670410E-001;-4.875384271144867E-002;7.285191531991586E-005;4.381389589980245E-004;
2.420666666666667E+009;1.783578395843506E-001;-4.997250810265541E-002;-8.558820991311222E-005;2.760424104053527E-004;
2.420833333333334E+009;1.767885684967041E-001;-5.148601159453392E-002;-2.480522671248764E-004;4.655958618968725E-004;
2.421000000000000E+009;1.753159463405609E-001;-5.290703102946281E-002;-6.339731626212597E-004;4.587660660035908E-004;
2.421166666666667E+009;1.737994104623795E-001;-5.479178577661514E-002;-7.251779315993190E-004;5.872194888070226E-004;
2.421333333333334E+009;1.720880568027496E-001;-5.621325969696045E-002;-1.010969746857882E-003;7.730623474344611E-004;
2.421500000000000E+009;1.710406988859177E-001;-5.819536000490189E-002;-1.026033889502287E-003;8.401427185162902E-004;
2.421666666666667E+009;1.696485728025436E-001;-5.998722836375237E-002;-1.193279167637229E-003;1.003093551844358E-003;
2.421833333333334E+009;1.687130630016327E-001;-6.179082766175270E-002;-1.238672877661884E-003;1.370543031953275E-003;
2.422000000000000E+009;1.675811409950256E-001;-6.375813484191895E-002;-1.353432307951152E-003;1.464306609705091E-003;
2.422166666666667E+009;1.665520519018173E-001;-6.599818915128708E-002;-1.277904957532883E-003;1.787354121915996E-003;
2.422333333333334E+009;1.656230688095093E-001;-6.801644712686539E-002;-1.181942760013044E-003;2.004276961088181E-003;
2.422500000000000E+009;1.649362295866013E-001;-6.985222548246384E-002;-1.148442388512194E-003;2.129325177520514E-003;
2.422666666666667E+009;1.642085015773773E-001;-7.193343341350555E-002;-1.092503196559846E-003;2.253736602142453E-003;
2.422833333333334E+009;1.636224538087845E-001;-7.414776086807251E-002;-1.032689353451133E-003;2.490502782166004E-003;
2.423000000000000E+009;1.632841676473618E-001;-7.610807567834854E-002;-8.245491189882159E-004;2.560523338615894E-003;
2.423166666666667E+009;1.626742035150528E-001;-7.813575118780136E-002;-7.584822596982122E-004;2.730953274294734E-003;
2.423333333333334E+009;1.625137329101563E-001;-8.002689480781555E-002;-5.607848288491368E-004;2.735689980909228E-003;
2.423500000000000E+009;1.626725643873215E-001;-8.196006715297699E-002;-4.946166882291436E-004;2.697139978408814E-003;
2.423666666666667E+009;1.626228392124176E-001;-8.396781980991364E-002;-3.909209044650197E-004;2.826207783073187E-003;
2.423833333333334E+009;1.626114845275879E-001;-8.572968840599060E-002;-2.608456416055560E-004;2.915632445365191E-003;
2.424000000000000E+009;1.627682447433472E-001;-8.740644901990891E-002;-2.291773562319577E-004;3.155095269903541E-003;
2.424166666666667E+009;1.627728492021561E-001;-8.903440833091736E-002;-1.914062595460564E-004;3.136866260319948E-003;
2.424333333333334E+009;1.631488054990768E-001;-9.045360982418060E-002;-5.361700459616259E-005;3.270315704867244E-003;
2.424500000000000E+009;1.634476333856583E-001;-9.227557480335236E-002;1.490381255280227E-004;3.362464718520641E-003;
2.424666666666667E+009;1.637076735496521E-001;-9.361247718334198E-002;3.894148685503751E-004;3.385036252439022E-003;
2.424833333333334E+009;1.642807126045227E-001;-9.480874240398407E-002;5.216752178966999E-004;3.518740879371762E-003;
2.425000000000000E+009;1.646840274333954E-001;-9.617703408002853E-002;6.765334401279688E-004;3.541231155395508E-003;
2.425166666666667E+009;1.649531275033951E-001;-9.717568010091782E-002;1.089114113710821E-003;3.615707159042358E-003;
2.425333333333334E+009;1.652568578720093E-001;-9.816247969865799E-002;1.198434154503048E-003;3.458396531641483E-003;
2.425500000000000E+009;1.658388972282410E-001;-9.910015016794205E-002;1.364371040835977E-003;3.699544817209244E-003;
2.425666666666667E+009;1.661882698535919E-001;-9.983336925506592E-002;1.821761019527912E-003;3.503366839140654E-003;
2.425833333333334E+009;1.665995866060257E-001;-1.005449742078781E-001;1.909836777485907E-003;3.504763124510646E-003;
2.426000000000000E+009;1.668630689382553E-001;-1.009846553206444E-001;2.004592679440975E-003;3.272342728450894E-003;
2.426166666666667E+009;1.673224866390228E-001;-1.014655232429504E-001;2.248521894216538E-003;3.187128575518727E-003;
2.426333333333334E+009;1.675190776586533E-001;-1.018737033009529E-001;2.448147162795067E-003;3.080304479226470E-003;
2.426500000000000E+009;1.679279208183289E-001;-1.022583991289139E-001;2.746907761320472E-003;2.909511327743530E-003;
2.426666666666667E+009;1.681125611066818E-001;-1.024755388498306E-001;2.739544492214918E-003;2.893539611250162E-003;
2.426833333333334E+009;1.683733463287354E-001;-1.028264686465263E-001;2.774575026705861E-003;2.662963001057506E-003;
2.427000000000000E+009;1.684115231037140E-001;-1.029569059610367E-001;3.124424954876304E-003;2.336034551262856E-003;
2.427166666666667E+009;1.684561669826508E-001;-1.029637306928635E-001;3.024165518581867E-003;2.216736786067486E-003;
2.427333333333334E+009;1.682913899421692E-001;-1.032200828194618E-001;3.159340238198638E-003;2.109228400513530E-003;
2.427500000000000E+009;1.680161207914352E-001;-1.033386960625649E-001;3.185808658599854E-003;1.926322351209819E-003;
2.427666666666667E+009;1.677258610725403E-001;-1.033424809575081E-001;3.286269726231694E-003;1.848613610491157E-003;
