# Version 1.00
#
freq[Hz];re:Trc1_S11;im:Trc1_S11;re:Trc2_S21;im:Trc2_S21;
2.400000000000000E+009;1.555389314889908E-001;1.066856011748314E-001;-2.658102661371231E-003;-3.386284224689007E-003;
2.400166666666667E+009;1.553014814853668E-001;1.043513938784599E-001;-3.002156969159842E-003;-3.095693886280060E-003;
2.400333333333334E+009;1.554056555032730E-001;1.021455749869347E-001;-3.003960242494941E-003;-2.580085070803762E-003;
2.400500000000000E+009;1.551986336708069E-001;9.923388808965683E-002;-2.854264574125409E-003;-2.421306911855936E-003;
2.400666666666667E+009;1.553754061460495E-001;9.680303186178207E-002;-2.976360032334924E-003;-2.063056686893106E-003;
2.400833333333334E+009;1.551898717880249E-001;9.390670061111450E-002;-2.949310233816505E-003;-1.709528034552932E-003;
2.401000000000000E+009;1.555771827697754E-001;9.107351303100586E-002;-2.850964898243547E-003;-1.444628112949431E-003;
2.401166666666667E+009;1.553426682949066E-001;8.843846619129181E-002;-2.583531895652413E-003;-1.388014294207096E-003;
2.401333333333334E+009;1.559884250164032E-001;8.540899306535721E-002;-2.464494900777936E-003;-1.221576472744346E-003;
2.401500000000000E+009;1.562708765268326E-001;8.260360360145569E-002;-2.185352379456163E-003;-9.670855361036956E-004;
2.401666666666667E+009;1.565631479024887E-001;7.971200346946716E-002;-2.055753255262971E-003;-9.324381826445460E-004;
2.401833333333334E+009;1.571204215288162E-001;7.694669067859650E-002;-1.796679571270943E-003;-9.760168031789362E-004;
2.402000000000000E+009;1.580843329429627E-001;7.416918128728867E-002;-1.784692169167101E-003;-9.701122180558741E-004;
2.402166666666667E+009;1.588783264160156E-001;7.157435268163681E-002;-1.705278176814318E-003;-1.131419208832085E-003;
2.402333333333334E+009;1.598597466945648E-001;6.876686215400696E-002;-1.534316921606660E-003;-1.065246993675828E-003;
2.402500000000000E+009;1.609968990087509E-001;6.630272418260574E-002;-1.596217858605087E-003;-1.264364458620548E-003;
2.402666666666667E+009;1.620858013629913E-001;6.394509971141815E-002;-1.680328045040369E-003;-1.218470162712038E-003;
2.402833333333334E+009;1.634317785501480E-001;6.144984439015389E-002;-1.356845139525831E-003;-1.390888006426394E-003;
2.403000000000000E+009;1.649360358715057E-001;5.898788943886757E-002;-1.410626457072794E-003;-1.283979858271778E-003;
2.403166666666667E+009;1.664610803127289E-001;5.676950514316559E-002;-1.608944265171886E-003;-1.204255153425038E-003;
2.403333333333334E+009;1.681997627019882E-001;5.453389883041382E-002;-1.670923666097224E-003;-1.335285021923482E-003;
2.403500000000000E+009;1.697914898395538E-001;5.244673416018486E-002;-1.821959973312914E-003;-1.280994387343526E-003;
2.403666666666667E+009;1.717399805784226E-001;5.074809864163399E-002;-1.872619264759123E-003;-1.148825976997614E-003;
2.403833333333334E+009;1.732366085052490E-001;4.858338460326195E-002;-1.808402012102306E-003;-9.806384332478046E-004;
2.404000000000000E+009;1.746546924114227E-001;4.695445671677589E-002;-1.850722590461373E-003;-9.216975304298103E-004;
2.404166666666667E+009;1.766533702611923E-001;4.536212608218193E-002;-1.865933649241924E-003;-7.443393697030842E-004;
2.404333333333334E+009;1.782751232385635E-001;4.391200095415115E-002;-1.816963078454137E-003;-6.914116675034165E-004;
2.404500000000000E+009;1.797960698604584E-001;4.236578568816185E-002;-1.776053104549646E-003;-6.125376676209271E-004;
2.404666666666667E+009;1.814517825841904E-001;4.132901132106781E-002;-1.660726615227759E-003;-6.207728874869645E-004;
2.404833333333334E+009;1.831492036581039E-001;4.007051885128021E-002;-1.419355161488056E-003;-6.987576489336789E-004;
2.405000000000000E+009;1.844873875379562E-001;3.961677104234695E-002;-1.424701767973602E-003;-6.788141326978803E-004;
2.405166666666667E+009;1.859851628541946E-001;3.877034410834312E-002;-1.448650611564517E-003;-8.554247324354947E-004;
2.405333333333334E+009;1.873806715011597E-001;3.841791674494743E-002;-1.417785882949829E-003;-7.852037088014185E-004;
2.405500000000000E+009;1.887306869029999E-001;3.783375769853592E-002;-1.527424552477896E-003;-9.484260226599872E-004;
2.405666666666667E+009;1.900844871997833E-001;3.753625974059105E-002;-1.375388237647712E-003;-8.877532673068345E-004;
2.405833333333334E+009;1.912835836410523E-001;3.720946237444878E-002;-1.365747302770615E-003;-9.463721071369946E-004;
2.406000000000000E+009;1.922301650047302E-001;3.718290105462074E-002;-1.447079353965819E-003;-8.633589604869485E-004;
2.406166666666667E+009;1.932523995637894E-001;3.702837228775024E-002;-1.417332445271313E-003;-8.750881534069777E-004;
2.406333333333334E+009;1.942390799522400E-001;3.692602366209030E-002;-1.535730785690248E-003;-9.335990762338042E-004;
2.406500000000000E+009;1.949370950460434E-001;3.693502768874168E-002;-1.504514948464930E-003;-1.003346638754010E-003;
2.406666666666667E+009;1.955753862857819E-001;3.701768070459366E-002;-1.626842655241489E-003;-9.592836722731590E-004;
2.406833333333334E+009;1.960694044828415E-001;3.709703311324120E-002;-1.489322050474584E-003;-8.946593152359128E-004;
2.407000000000000E+009;1.962489932775497E-001;3.718977421522141E-002;-1.640210510231555E-003;-1.067615929059684E-003;
2.407166666666667E+009;1.966313123703003E-001;3.711356595158577E-002;-1.520916237495840E-003;-8.569097262807190E-004;
2.407333333333334E+009;1.966003626585007E-001;3.722960501909256E-002;-1.730842050164938E-003;-9.764243732206523E-004;
2.407500000000000E+009;1.965205669403076E-001;3.748185560107231E-002;-1.653292332775891E-003;-9.521190077066422E-004;
2.407666666666667E+009;1.965188831090927E-001;3.731365874409676E-002;-1.743144472129643E-003;-9.728484437800944E-004;
2.407833333333334E+009;1.959658563137054E-001;3.735249489545822E-002;-1.646485994569957E-003;-9.677351918071508E-004;
2.408000000000000E+009;1.959066987037659E-001;3.713528066873550E-002;-1.762071158736944E-003;-9.388080216012895E-004;
2.408166666666667E+009;1.951958537101746E-001;3.679592162370682E-002;-1.803366816602647E-003;-1.051373779773712E-003;
2.408333333333334E+009;1.947227865457535E-001;3.629164397716522E-002;-1.851129578426480E-003;-9.466378833167255E-004;
2.408500000000000E+009;1.939124912023544E-001;3.602392226457596E-002;-1.844522543251514E-003;-9.540768805891275E-004;
2.408666666666667E+009;1.933265179395676E-001;3.551462292671204E-002;-1.920343958772719E-003;-9.511066600680351E-004;
2.408833333333334E+009;1.925965249538422E-001;3.474824130535126E-002;-2.062651328742504E-003;-9.140305337496102E-004;
2.409000000000000E+009;1.915851682424545E-001;3.387232869863510E-002;-1.978000393137336E-003;-8.100777631625533E-004;
2.409166666666667E+009;1.904162764549255E-001;3.295959532260895E-002;-2.151855034753680E-003;-7.742332527413964E-004;
2.409333333333334E+009;1.896372437477112E-001;3.191925957798958E-002;-2.297523198649287E-003;-8.823501411825419E-004;
2.409500000000000E+009;1.883579194545746E-001;3.067697212100029E-002;-2.388791181147099E-003;-8.869220619089901E-004;
2.409666666666667E+009;1.873654127120972E-001;2.930351905524731E-002;-2.482421696186066E-003;-7.485537207685411E-004;
2.409833333333334E+009;1.864725649356842E-001;2.789554744958878E-002;-2.441542223095894E-003;-7.983006653375924E-004;
2.410000000000000E+009;1.853222250938416E-001;2.617023698985577E-002;-2.549581928178668E-003;-6.853676750324667E-004;
2.410166666666667E+009;1.842224746942520E-001;2.438524737954140E-002;-2.609587041661143E-003;-6.758148665539920E-004;
2.410333333333334E+009;1.832394450902939E-001;2.264768630266190E-002;-2.707215957343578E-003;-5.177914863452315E-004;
2.410500000000000E+009;1.821295619010925E-001;2.072378061711788E-002;-2.824746072292328E-003;-3.397877735551447E-004;
2.410666666666667E+009;1.812238097190857E-001;1.854972168803215E-002;-2.696285257115960E-003;-4.253884544596076E-004;
2.410833333333334E+009;1.805477291345596E-001;1.650869660079479E-002;-2.729698317125440E-003;-2.598813443910331E-004;
2.411000000000000E+009;1.797719001770020E-001;1.408487278968096E-002;-2.819963963702321E-003;-7.064698002068326E-005;
2.411166666666667E+009;1.791627705097199E-001;1.198096759617329E-002;-2.768171252682805E-003;-1.742854510666803E-004;
2.411333333333334E+009;1.786145567893982E-001;9.360447525978088E-003;-2.663237974047661E-003;7.123065734049305E-005;
2.411500000000000E+009;1.781777143478394E-001;7.111332379281521E-003;-2.811451675370336E-003;1.575006172060967E-004;
2.411666666666667E+009;1.779935806989670E-001;4.858900792896748E-003;-2.837256761267781E-003;2.564747992437333E-004;
2.411833333333334E+009;1.776156574487686E-001;2.209649421274662E-003;-2.790007973089814E-003;3.085717908106744E-004;
2.412000000000000E+009;1.778660565614700E-001;-3.391647478565574E-004;-2.939864061772823E-003;3.602257347665727E-004;
2.412166666666667E+009;1.779214441776276E-001;-2.588572446256876E-003;-2.806327072903514E-003;4.399539902806282E-004;
2.412333333333334E+009;1.782168298959732E-001;-5.142346024513245E-003;-2.903520828112960E-003;4.900102503597736E-004;
2.412500000000000E+009;1.784487664699554E-001;-7.534526754170656E-003;-2.896291902288795E-003;5.169313517399132E-004;
2.412666666666667E+009;1.788407415151596E-001;-9.909264743328095E-003;-2.785733668133616E-003;5.576213588938117E-004;
2.412833333333334E+009;1.797238290309906E-001;-1.260420307517052E-002;-2.890228759497404E-003;5.599126452580094E-004;
2.413000000000000E+009;1.802648752927780E-001;-1.480998285114765E-002;-2.935183001682162E-003;7.209078758023679E-004;
2.413166666666667E+009;1.810612827539444E-001;-1.702445186674595E-002;-3.027648199349642E-003;8.773967856541276E-004;
2.413333333333334E+009;1.823029816150665E-001;-1.936695724725723E-002;-3.108195727691054E-003;1.091065118089318E-003;
2.413500000000000E+009;1.831569075584412E-001;-2.160418592393398E-002;-3.124937182292342E-003;1.214043819345534E-003;
2.413666666666667E+009;1.843038201332092E-001;-2.383004501461983E-002;-3.143970621749759E-003;1.363499090075493E-003;
2.413833333333334E+009;1.854480504989624E-001;-2.569292671978474E-002;-3.303530625998974E-003;1.653461018577218E-003;
2.414000000000000E+009;1.864723414182663E-001;-2.760099060833454E-002;-3.118226304650307E-003;1.754122669808567E-003;
2.414166666666667E+009;1.877758949995041E-001;-2.939212322235107E-002;-2.995222574099898E-003;2.000087173655629E-003;
2.414333333333334E+009;1.888331919908524E-001;-3.141937032341957E-002;-3.047182457521558E-003;2.143136691302061E-003;
2.414500000000000E+009;1.902103722095490E-001;-3.294072672724724E-002;-2.988941967487335E-003;2.394150476902723E-003;
2.414666666666667E+009;1.912387609481812E-001;-3.434360399842262E-002;-2.751937601715326E-003;2.565069356933236E-003;
2.414833333333334E+009;1.924750506877899E-001;-3.562492504715920E-002;-2.574873156845570E-003;2.724811201915145E-003;
2.415000000000000E+009;1.935778707265854E-001;-3.699858859181404E-002;-2.462307224050164E-003;2.817231928929687E-003;
2.415166666666667E+009;1.948064714670181E-001;-3.813174739480019E-002;-2.301540458574891E-003;2.854146761819720E-003;
2.415333333333334E+009;1.960843205451965E-001;-3.897423297166824E-002;-2.254942432045937E-003;2.959986682981253E-003;
2.415500000000000E+009;1.972662657499313E-001;-3.952140361070633E-002;-1.906713936477900E-003;3.201067214831710E-003;
2.415666666666667E+009;1.982365399599075E-001;-4.042813926935196E-002;-1.676368759945035E-003;3.170855343341827E-003;
2.415833333333334E+009;1.989740580320358E-001;-4.094114154577255E-002;-1.539857708849013E-003;3.350639017298818E-003;
2.416000000000000E+009;1.998080760240555E-001;-4.155911505222321E-002;-1.383144175633788E-003;3.282818710431457E-003;
2.416166666666667E+009;2.007182985544205E-001;-4.210541024804115E-002;-9.753106860443950E-004;3.409387310966849E-003;
2.416333333333334E+009;2.013617604970932E-001;-4.218288138508797E-002;-8.867260185070336E-004;3.297639777883887E-003;
2.416500000000000E+009;2.017258703708649E-001;-4.248654469847679E-002;-7.456716266460717E-004;3.254774725064635E-003;
2.416666666666667E+009;2.020509690046310E-001;-4.280327260494232E-002;-4.228542675264180E-004;3.171164076775312E-003;
2.416833333333334E+009;2.022232115268707E-001;-4.279492795467377E-002;-3.750849282369018E-004;3.178287995979190E-003;
2.417000000000000E+009;2.024358361959457E-001;-4.285845533013344E-002;-2.703069185372442E-004;3.122608410194516E-003;
2.417166666666667E+009;2.020637243986130E-001;-4.273598641157150E-002;-2.526717726141214E-004;2.819776535034180E-003;
2.417333333333334E+009;2.019531279802322E-001;-4.262292012572289E-002;1.242946309503168E-004;2.915140008553863E-003;
2.417500000000000E+009;2.016517966985703E-001;-4.254968091845512E-002;4.820492904400453E-005;2.791486447677016E-003;
2.417666666666667E+009;2.011927962303162E-001;-4.227440804243088E-002;2.980580029543489E-004;2.740695141255856E-003;
2.417833333333334E+009;2.007477581501007E-001;-4.206784814596176E-002;2.888076414819807E-004;2.597601385787129E-003;
2.418000000000000E+009;2.000302672386169E-001;-4.183405637741089E-002;4.903271328657866E-004;2.500945935025811E-003;
2.418166666666667E+009;1.992365419864655E-001;-4.170938581228256E-002;5.678766174241900E-004;2.566149225458503E-003;
2.418333333333334E+009;1.983111202716827E-001;-4.155938327312470E-002;5.292463465593755E-004;2.419979544356465E-003;
2.418500000000000E+009;1.972229778766632E-001;-4.145877063274384E-002;6.442985031753779E-004;2.231523627415299E-003;
2.418666666666667E+009;1.962891817092896E-001;-4.150176420807838E-002;8.730828412808478E-004;2.174627268686891E-003;
2.418833333333334E+009;1.950510889291763E-001;-4.162959009408951E-002;9.174409788101912E-004;1.997208455577493E-003;
2.419000000000000E+009;1.938078552484512E-001;-4.182159528136253E-002;9.737538639456034E-004;2.024023327976465E-003;
2.419166666666667E+009;1.924702078104019E-001;-4.213915020227432E-002;7.658289396204054E-004;1.702794572338462E-003;
2.419333333333334E+009;1.910885125398636E-001;-4.264668375253677E-002;9.151285048574209E-004;1.574805239215493E-003;
2.419500000000000E+009;1.895566433668137E-001;-4.303187504410744E-002;8.995089447125793E-004;1.287066261284053E-003;
2.419666666666667E+009;1.879825443029404E-001;-4.377442225813866E-002;8.666938520036638E-004;9.296748903580010E-004;
2.419833333333334E+009;1.864920705556870E-001;-4.447998851537705E-002;8.468692540191114E-004;1.065526972524822E-003;
2.420000000000000E+009;1.848608702421188E-001;-4.532413929700851E-002;7.858047029003501E-004;7.374612032435834E-004;
2.420166666666667E+009;1.832780390977860E-001;-4.632400721311569E-002;6.423468003049493E-004;7.156790816225112E-004;
2.420333333333334E+009;1.816518902778626E-001;-4.749211296439171E-002;5.694918800145388E-004;4.914361634291709E-004;
2.420500000000000E+009;1.798974722623825E-001;-4.875281825661659E-002;2.584559551905841E-004;5.024446872994304E-004;
2.420666666666667E+009;1.783337295055389E-001;-4.993674531579018E-002;-8.972376963356510E-005;3.222249215468764E-004;
2.420833333333334E+009;1.766680479049683E-001;-5.146046727895737E-002;-1.479104976169765E-004;4.258106346242130E-004;
2.421000000000000E+009;1.751928180456162E-001;-5.285348743200302E-002;-4.033680015709251E-004;4.423403006512672E-004;
2.421166666666667E+009;1.737986057996750E-001;-5.455875769257546E-002;-7.453699363395572E-004;6.332446355372667E-004;
2.421333333333334E+009;1.722100526094437E-001;-5.616489797830582E-002;-8.831451996229589E-004;7.691874052397907E-004;
2.421500000000000E+009;1.708595156669617E-001;-5.810692161321640E-002;-1.046756049618125E-003;1.043429831042886E-003;
2.421666666666667E+009;1.698257327079773E-001;-6.007442995905876E-002;-1.212036935612559E-003;1.197065110318363E-003;
2.421833333333334E+009;1.684875488281250E-001;-6.176322326064110E-002;-1.285433303564787E-003;1.370302052237093E-003;
2.422000000000000E+009;1.674368828535080E-001;-6.374724209308624E-002;-1.275940798223019E-003;1.481550978496671E-003;
2.422166666666667E+009;1.666822731494904E-001;-6.586453318595886E-002;-1.238952507264912E-003;1.650059362873435E-003;
2.422333333333334E+009;1.655641794204712E-001;-6.806671619415283E-002;-1.209524227306247E-003;1.976120285689831E-003;
2.422500000000000E+009;1.648372411727905E-001;-6.997840106487274E-002;-1.123233581893146E-003;2.072150819003582E-003;
2.422666666666667E+009;1.641335487365723E-001;-7.197254151105881E-002;-9.784960420802236E-004;2.226923359557986E-003;
2.422833333333334E+009;1.637567579746246E-001;-7.417102158069611E-002;-1.074930885806680E-003;2.347345463931561E-003;
2.423000000000000E+009;1.631663739681244E-001;-7.614260166883469E-002;-7.892022840678692E-004;2.538589760661125E-003;
2.423166666666667E+009;1.628975570201874E-001;-7.806237041950226E-002;-6.903319153934717E-004;2.683872589841485E-003;
2.423333333333334E+009;1.626376509666443E-001;-8.012298494577408E-002;-5.744824884459376E-004;2.761440817266703E-003;
2.423500000000000E+009;1.625420898199081E-001;-8.198352903127670E-002;-5.043752025812864E-004;2.666673157364130E-003;
2.423666666666667E+009;1.626226454973221E-001;-8.390492200851440E-002;-4.743027384392917E-004;2.909809118136764E-003;
2.423833333333334E+009;1.625147461891174E-001;-8.565986901521683E-002;-2.266785595566034E-004;3.058607457205653E-003;
2.424000000000000E+009;1.627484411001205E-001;-8.737818896770477E-002;-1.730363728711382E-004;3.068073652684689E-003;
2.424166666666667E+009;1.627754718065262E-001;-8.895948529243469E-002;-1.330389350187033E-004;3.142754547297955E-003;
2.424333333333334E+009;1.630143970251083E-001;-9.047763049602509E-002;1.911222716444172E-005;3.162255743518472E-003;
2.424500000000000E+009;1.634292900562286E-001;-9.234403818845749E-002;1.725254987832159E-004;3.349674865603447E-003;
2.424666666666667E+009;1.636614948511124E-001;-9.362300485372543E-002;2.763970114756376E-004;3.411401063203812E-003;
2.424833333333334E+009;1.642558127641678E-001;-9.492497891187668E-002;6.084810011088848E-004;3.529221285134554E-003;
2.425000000000000E+009;1.645776629447937E-001;-9.615773707628250E-002;9.363477001897991E-004;3.459865925833583E-003;
2.425166666666667E+009;1.649666130542755E-001;-9.717781841754913E-002;1.076888293027878E-003;3.665276803076267E-003;
2.425333333333334E+009;1.653029918670654E-001;-9.812477231025696E-002;1.318709226325154E-003;3.711141878738999E-003;
2.425500000000000E+009;1.657324284315109E-001;-9.917137026786804E-002;1.500194543041289E-003;3.542955499142408E-003;
2.425666666666667E+009;1.661597043275833E-001;-9.976280480623245E-002;1.765799010172486E-003;3.515583695843816E-003;
2.425833333333334E+009;1.664754301309586E-001;-1.004716828465462E-001;1.927471719682217E-003;3.364890348166227E-003;
2.426000000000000E+009;1.669852584600449E-001;-1.008865460753441E-001;2.237826352939010E-003;3.308499697595835E-003;
2.426166666666667E+009;1.674237549304962E-001;-1.013836041092873E-001;2.290046075358987E-003;3.212294541299343E-003;
2.426333333333334E+009;1.674424856901169E-001;-1.020024493336678E-001;2.668173750862479E-003;3.182479180395603E-003;
2.426500000000000E+009;1.678154319524765E-001;-1.021215990185738E-001;2.698344876989722E-003;2.938057994470000E-003;
2.426666666666667E+009;1.680164188146591E-001;-1.025543287396431E-001;2.837943611666560E-003;2.790031488984823E-003;
2.426833333333334E+009;1.683307737112045E-001;-1.026378050446510E-001;2.905059140175581E-003;2.637768629938364E-003;
2.427000000000000E+009;1.683186888694763E-001;-1.028282418847084E-001;2.997608389705420E-003;2.453228225931525E-003;
2.427166666666667E+009;1.682962030172348E-001;-1.029731109738350E-001;3.107758704572916E-003;2.240932779386640E-003;
2.427333333333334E+009;1.682738065719605E-001;-1.031605079770088E-001;2.995510352775455E-003;2.027265261858702E-003;
2.427500000000000E+009;1.679797172546387E-001;-1.033459752798080E-001;3.087601857259870E-003;1.933203893713653E-003;
2.427666666666667E+009;1.677178144454956E-001;-1.033850759267807E-001;3.272414440289140E-003;1.730788731947541E-003;
