# Version 1.00
#
freq[Hz];re:Trc1_S11;im:Trc1_S11;re:Trc2_S21;im:Trc2_S21;
2.400000000000000E+009;1.584233641624451E-001;6.294611841440201E-002;-1.345423050224781E-003;3.216830780729652E-003;
2.400166666666667E+009;1.584148854017258E-001;6.151208281517029E-002;-1.138322288170457E-003;3.248158376663923E-003;
2.400333333333334E+009;1.579720675945282E-001;5.967305228114128E-002;-9.782125707715750E-004;3.265664214268327E-003;
2.400500000000000E+009;1.580473482608795E-001;5.775022879242897E-002;-8.646167116239667E-004;3.290527267381549E-003;
2.400666666666667E+009;1.579841673374176E-001;5.579202622175217E-002;-7.650231127627194E-004;3.151919459924102E-003;
2.400833333333334E+009;1.581181883811951E-001;5.378693714737892E-002;-4.471838474273682E-004;3.416530322283506E-003;
2.401000000000000E+009;1.580587178468704E-001;5.183987319469452E-002;-3.266856074333191E-004;3.319528419524431E-003;
2.401166666666667E+009;1.581432372331619E-001;4.959405586123467E-002;-8.215265552280471E-005;3.272048430517316E-003;
2.401333333333334E+009;1.583894342184067E-001;4.754199832677841E-002;1.697564948699437E-005;3.330910811200738E-003;
2.401500000000000E+009;1.587653011083603E-001;4.548928141593933E-002;2.274223661515862E-004;3.235874930396676E-003;
2.401666666666667E+009;1.588346958160400E-001;4.350196942687035E-002;4.498071793932468E-004;3.201118670403957E-003;
2.401833333333334E+009;1.592424064874649E-001;4.122067242860794E-002;5.820152582600713E-004;3.210461232811213E-003;
2.402000000000000E+009;1.596106290817261E-001;3.931552544236183E-002;7.069567800499499E-004;3.060557181015611E-003;
2.402166666666667E+009;1.602157652378082E-001;3.735471144318581E-002;8.663623593747616E-004;3.096653614193201E-003;
2.402333333333334E+009;1.605993211269379E-001;3.535096347332001E-002;1.134082442149520E-003;2.826393116265535E-003;
2.402500000000000E+009;1.614331305027008E-001;3.353051096200943E-002;1.167236361652613E-003;2.853864571079612E-003;
2.402666666666667E+009;1.619310528039932E-001;3.166291490197182E-002;1.431305194273591E-003;2.712752670049667E-003;
2.402833333333334E+009;1.627093553543091E-001;2.996109798550606E-002;1.290486194193363E-003;2.677083946764469E-003;
2.403000000000000E+009;1.635747551918030E-001;2.828412130475044E-002;1.585502061061561E-003;2.565761096775532E-003;
2.403166666666667E+009;1.644758582115173E-001;2.656529285013676E-002;1.722606481052935E-003;2.353433053940535E-003;
2.403333333333334E+009;1.652295291423798E-001;2.515709213912487E-002;1.758455880917609E-003;2.281606430187821E-003;
2.403500000000000E+009;1.661030650138855E-001;2.370517514646053E-002;1.947375596500933E-003;2.112246118485928E-003;
2.403666666666667E+009;1.669036448001862E-001;2.218114025890827E-002;2.051301300525665E-003;1.836708514019847E-003;
2.403833333333334E+009;1.679441481828690E-001;2.082948386669159E-002;2.024692948907614E-003;1.838482567109168E-003;
2.404000000000000E+009;1.690336763858795E-001;1.970012299716473E-002;2.040627645328641E-003;1.578176044858992E-003;
2.404166666666667E+009;1.699816733598709E-001;1.833340153098106E-002;2.160470932722092E-003;1.682182424701750E-003;
2.404333333333334E+009;1.709271222352982E-001;1.756598800420761E-002;2.166444668546319E-003;1.458314945921302E-003;
2.404500000000000E+009;1.717691123485565E-001;1.618276350200176E-002;2.037983853369951E-003;1.401985180564225E-003;
2.404666666666667E+009;1.727042496204376E-001;1.542792841792107E-002;2.156483475118876E-003;1.199351623654366E-003;
2.404833333333334E+009;1.737614125013351E-001;1.460247673094273E-002;2.076107310131192E-003;1.139334752224386E-003;
2.405000000000000E+009;1.744941174983978E-001;1.380677893757820E-002;2.074007876217365E-003;9.006668115034699E-004;
2.405166666666667E+009;1.754732877016068E-001;1.318330969661474E-002;2.264318522065878E-003;8.691662224009633E-004;
2.405333333333334E+009;1.764442026615143E-001;1.242342032492161E-002;2.264813752844930E-003;8.889405871741474E-004;
2.405500000000000E+009;1.771511286497116E-001;1.210275664925575E-002;2.308532129973173E-003;7.645732839591801E-004;
2.405666666666667E+009;1.777464449405670E-001;1.143636927008629E-002;2.209534402936697E-003;5.142675363458693E-004;
2.405833333333334E+009;1.783825159072876E-001;1.118747889995575E-002;2.329080831259489E-003;4.655025841202587E-004;
2.406000000000000E+009;1.790241897106171E-001;1.060317736119032E-002;2.284951275214553E-003;4.536092747002840E-004;
2.406166666666667E+009;1.793434768915176E-001;1.040274184197187E-002;2.190785948187113E-003;4.633455246221274E-004;
2.406333333333334E+009;1.800194978713989E-001;1.007711049169302E-002;2.117130206897855E-003;3.267453212174587E-005;
2.406500000000000E+009;1.802818030118942E-001;9.698290377855301E-003;2.314740559086204E-003;2.383774117333815E-004;
2.406666666666667E+009;1.804294139146805E-001;9.388293139636517E-003;2.266508294269443E-003;5.268989480100572E-005;
2.406833333333334E+009;1.806979179382324E-001;9.123230352997780E-003;2.386226784437895E-003;-1.844211074057967E-004;
2.407000000000000E+009;1.808463186025620E-001;8.876827545464039E-003;2.158242510631681E-003;-1.463844528188929E-004;
2.407166666666667E+009;1.809011846780777E-001;8.578168228268623E-003;2.364310668781400E-003;-2.223617048002780E-004;
2.407333333333334E+009;1.808817237615585E-001;8.080195635557175E-003;2.127982443198562E-003;-4.481944779399782E-004;
2.407500000000000E+009;1.807592362165451E-001;7.699879352003336E-003;2.194391796365380E-003;-4.910100833512843E-004;
2.407666666666667E+009;1.805131584405899E-001;7.328387815505266E-003;2.256388543173671E-003;-5.977649125270546E-004;
2.407833333333334E+009;1.800656914710999E-001;6.802463438361883E-003;2.121723257005215E-003;-6.286294083110988E-004;
2.408000000000000E+009;1.797989904880524E-001;6.149729248136282E-003;1.927809789776802E-003;-9.554814314469695E-004;
2.408166666666667E+009;1.795129477977753E-001;5.735367536544800E-003;1.776299555785954E-003;-1.153899822384119E-003;
2.408333333333334E+009;1.791196912527084E-001;4.961615893989801E-003;1.931684208102524E-003;-1.274404930882156E-003;
2.408500000000000E+009;1.785609573125839E-001;4.065857734531164E-003;1.692443387582898E-003;-1.145975664258003E-003;
2.408666666666667E+009;1.779009848833084E-001;3.396573243662715E-003;1.739791827276349E-003;-1.369126723147929E-003;
2.408833333333334E+009;1.772941797971726E-001;2.360072918236256E-003;1.457748003304005E-003;-1.296267844736576E-003;
2.409000000000000E+009;1.765867322683334E-001;1.526147127151489E-003;1.684113289229572E-003;-1.408469048328698E-003;
2.409166666666667E+009;1.759225130081177E-001;3.813445218838751E-004;1.390444464050233E-003;-1.532689901068807E-003;
2.409333333333334E+009;1.753785610198975E-001;-7.850360707379878E-004;1.314932713285089E-003;-1.603566459380090E-003;
2.409500000000000E+009;1.744800359010696E-001;-2.174733439460397E-003;1.214846037328243E-003;-1.670772209763527E-003;
2.409666666666667E+009;1.737098842859268E-001;-3.356543602421880E-003;1.087911077775061E-003;-1.596893998794258E-003;
2.409833333333334E+009;1.730721294879913E-001;-4.870669450610876E-003;1.159532694146037E-003;-1.819424447603524E-003;
2.410000000000000E+009;1.724905818700790E-001;-6.169424392282963E-003;9.916769340634346E-004;-1.698638196103275E-003;
2.410166666666667E+009;1.719679832458496E-001;-7.649529725313187E-003;7.758413557894528E-004;-1.907245838083327E-003;
2.410333333333334E+009;1.711268424987793E-001;-9.295818395912647E-003;7.952768355607987E-004;-1.616589259356260E-003;
2.410500000000000E+009;1.704975813627243E-001;-1.099184993654490E-002;6.952992407605052E-004;-1.899768132716417E-003;
2.410666666666667E+009;1.699400544166565E-001;-1.281014271080494E-002;4.700082063209266E-004;-1.696925377473235E-003;
2.410833333333334E+009;1.695585846900940E-001;-1.441795472055674E-002;2.839089138433337E-004;-1.730190939269960E-003;
2.411000000000000E+009;1.690931469202042E-001;-1.617719046771526E-002;1.919551432365552E-004;-1.874334295280278E-003;
2.411166666666667E+009;1.686937808990479E-001;-1.816014200448990E-002;1.468646369175986E-004;-1.751279574818909E-003;
2.411333333333334E+009;1.684443801641464E-001;-2.002849243581295E-002;2.023276756517589E-004;-1.735366298817098E-003;
2.411500000000000E+009;1.681836247444153E-001;-2.214224450290203E-002;1.964012699318118E-005;-1.660644076764584E-003;
2.411666666666667E+009;1.681097447872162E-001;-2.389010600745678E-002;3.464512701611966E-006;-1.717139617539942E-003;
2.411833333333334E+009;1.680623143911362E-001;-2.579541318118572E-002;2.085647247440647E-005;-1.689433353021741E-003;
2.412000000000000E+009;1.679684370756149E-001;-2.790206670761108E-002;-2.823268296197057E-004;-1.634209416806698E-003;
2.412166666666667E+009;1.680747121572495E-001;-2.972448989748955E-002;-3.478723519947380E-004;-1.568043837323785E-003;
2.412333333333334E+009;1.684539914131165E-001;-3.160237148404121E-002;-4.751801607199013E-004;-1.618341193534434E-003;
2.412500000000000E+009;1.685535013675690E-001;-3.371048346161842E-002;-4.983065882697702E-004;-1.478712889365852E-003;
2.412666666666667E+009;1.686729192733765E-001;-3.568496927618980E-002;-4.387360531836748E-004;-1.454387325793505E-003;
2.412833333333334E+009;1.690430045127869E-001;-3.744968399405479E-002;-6.278889486566186E-004;-1.418087282218039E-003;
2.413000000000000E+009;1.694136857986450E-001;-3.921629115939140E-002;-6.239979993551970E-004;-1.447171205654740E-003;
2.413166666666667E+009;1.697186827659607E-001;-4.096643999218941E-002;-6.834010127931833E-004;-1.416002749465406E-003;
2.413333333333334E+009;1.701390445232391E-001;-4.277494922280312E-002;-6.883292226120830E-004;-1.323033357039094E-003;
2.413500000000000E+009;1.706782281398773E-001;-4.436456039547920E-002;-6.901902379468083E-004;-1.192133757285774E-003;
2.413666666666667E+009;1.714520901441574E-001;-4.610348492860794E-002;-6.101657636463642E-004;-1.205246895551682E-003;
2.413833333333334E+009;1.717220544815064E-001;-4.760765284299851E-002;-7.729348144493997E-004;-1.158081111498177E-003;
2.414000000000000E+009;1.721982508897781E-001;-4.909377545118332E-002;-6.817058310844004E-004;-9.742221445776522E-004;
2.414166666666667E+009;1.728985309600830E-001;-5.041252449154854E-002;-8.547815959900618E-004;-8.602329180575907E-004;
2.414333333333334E+009;1.733918190002441E-001;-5.147951096296310E-002;-9.001767612062395E-004;-1.134949969127774E-003;
2.414500000000000E+009;1.740714311599731E-001;-5.275868624448776E-002;-9.262955863960087E-004;-1.085717813111842E-003;
2.414666666666667E+009;1.745869964361191E-001;-5.388503149151802E-002;-1.015389803797007E-003;-1.152344630099833E-003;
2.414833333333334E+009;1.750245839357376E-001;-5.487400665879250E-002;-8.937857346609235E-004;-9.309338056482375E-004;
2.415000000000000E+009;1.753662526607513E-001;-5.584187060594559E-002;-9.367622551508248E-004;-7.636583177372813E-004;
2.415166666666667E+009;1.759888380765915E-001;-5.663660168647766E-002;-9.897755226120353E-004;-9.876533877104521E-004;
2.415333333333334E+009;1.763584613800049E-001;-5.741062760353088E-002;-1.037581358104944E-003;-8.414480835199356E-004;
2.415500000000000E+009;1.767294406890869E-001;-5.801969766616821E-002;-1.153600751422346E-003;-6.318535888567567E-004;
2.415666666666667E+009;1.769480109214783E-001;-5.854993686079979E-002;-1.197897363454104E-003;-6.114908610470593E-004;
2.415833333333334E+009;1.772968769073486E-001;-5.916798859834671E-002;-1.112561905756593E-003;-7.326569175347686E-004;
2.416000000000000E+009;1.773363053798676E-001;-5.970467254519463E-002;-1.154508208855987E-003;-5.220760940574110E-004;
2.416166666666667E+009;1.775765866041184E-001;-5.999712273478508E-002;-1.105217961594462E-003;-6.665803957730532E-004;
2.416333333333334E+009;1.774813085794449E-001;-6.045920401811600E-002;-1.241306192241609E-003;-4.683603183366358E-004;
2.416500000000000E+009;1.774668544530869E-001;-6.071258336305618E-002;-1.208372646942735E-003;-5.274629802443087E-004;
2.416666666666667E+009;1.771291345357895E-001;-6.098067015409470E-002;-1.188402995467186E-003;-5.137365660630167E-004;
2.416833333333334E+009;1.770451515913010E-001;-6.139925867319107E-002;-1.308484119363129E-003;-4.349087539594621E-004;
2.417000000000000E+009;1.765941232442856E-001;-6.160143762826920E-002;-1.433490193448961E-003;-3.586639068089426E-004;
2.417166666666667E+009;1.763129383325577E-001;-6.180347502231598E-002;-1.326187397353351E-003;-3.418739652261138E-004;
2.417333333333334E+009;1.757968664169312E-001;-6.185503676533699E-002;-1.235290546901524E-003;-3.764352586586028E-004;
2.417500000000000E+009;1.751790195703507E-001;-6.231435760855675E-002;-1.372771104797721E-003;-1.095882762456313E-004;
2.417666666666667E+009;1.747075915336609E-001;-6.231077760457993E-002;-1.476269564591348E-003;-2.464829012751579E-004;
2.417833333333334E+009;1.737980842590332E-001;-6.257150322198868E-002;-1.465518143959343E-003;-2.309314586455002E-004;
2.418000000000000E+009;1.729306131601334E-001;-6.301553547382355E-002;-1.600399729795754E-003;-7.076710608089343E-005;
2.418166666666667E+009;1.720398068428040E-001;-6.313508749008179E-002;-1.675215316936374E-003;-1.851831038948149E-004;
2.418333333333334E+009;1.712154448032379E-001;-6.358867138624191E-002;-1.483349245972931E-003;8.393685857299715E-005;
2.418500000000000E+009;1.701546907424927E-001;-6.401152163743973E-002;-1.666742959059775E-003;-7.120052760001272E-005;
2.418666666666667E+009;1.691305935382843E-001;-6.435706466436386E-002;-1.747702364809811E-003;1.963067043107003E-004;
2.418833333333334E+009;1.678783148527145E-001;-6.493422389030457E-002;-1.686997245997191E-003;3.150933771394193E-004;
2.419000000000000E+009;1.665936112403870E-001;-6.548956781625748E-002;-1.654907246120274E-003;3.454726247582585E-004;
2.419166666666667E+009;1.655632555484772E-001;-6.608881056308746E-002;-1.744627952575684E-003;5.201418534852564E-004;
2.419333333333334E+009;1.641781181097031E-001;-6.662572920322418E-002;-1.655414467677474E-003;4.694697854574770E-004;
2.419500000000000E+009;1.630548387765884E-001;-6.762043386697769E-002;-1.741067273542285E-003;6.574596627615392E-004;
2.419666666666667E+009;1.619834452867508E-001;-6.861292570829392E-002;-1.652008155360818E-003;6.749116000719369E-004;
2.419833333333334E+009;1.607420295476914E-001;-6.943506747484207E-002;-1.731280237436295E-003;7.433891296386719E-004;
2.420000000000000E+009;1.596694439649582E-001;-7.045155018568039E-002;-1.661522197537124E-003;9.071875829249620E-004;
2.420166666666667E+009;1.585662215948105E-001;-7.149907201528549E-002;-1.716298516839743E-003;9.499847074039280E-004;
2.420333333333334E+009;1.574766188859940E-001;-7.264209538698196E-002;-1.608443679288030E-003;1.075253123417497E-003;
2.420500000000000E+009;1.563206464052200E-001;-7.373347878456116E-002;-1.477272948250175E-003;1.175922690890729E-003;
2.420666666666667E+009;1.553066968917847E-001;-7.502210140228272E-002;-1.545786857604981E-003;1.321526127867401E-003;
2.420833333333334E+009;1.544349938631058E-001;-7.639238983392716E-002;-1.474502380006015E-003;1.382642774842680E-003;
2.421000000000000E+009;1.534529179334641E-001;-7.774089276790619E-002;-1.452467637136579E-003;1.449901261366904E-003;
2.421166666666667E+009;1.526129096746445E-001;-7.937680929899216E-002;-1.382205518893898E-003;1.723857712931931E-003;
2.421333333333334E+009;1.520280092954636E-001;-8.080439269542694E-002;-1.204884028993547E-003;1.705020666122437E-003;
2.421500000000000E+009;1.513445228338242E-001;-8.233474195003510E-002;-1.132378587499261E-003;1.813765498809516E-003;
2.421666666666667E+009;1.507582068443298E-001;-8.397888392210007E-002;-9.005350875668228E-004;1.613390748389065E-003;
2.421833333333334E+009;1.504920125007629E-001;-8.562909066677094E-002;-1.103993272408843E-003;1.778606092557311E-003;
2.422000000000000E+009;1.498748958110809E-001;-8.740877360105515E-002;-7.819371530786157E-004;1.929002813994885E-003;
2.422166666666667E+009;1.493889689445496E-001;-8.902522176504135E-002;-7.501030340790749E-004;2.005305141210556E-003;
2.422333333333334E+009;1.493201106786728E-001;-9.069681912660599E-002;-6.788487080484629E-004;1.979618100449443E-003;
2.422500000000000E+009;1.492835581302643E-001;-9.237904101610184E-002;-4.857789899688214E-004;2.078447956591845E-003;
2.422666666666667E+009;1.491141617298126E-001;-9.412045776844025E-002;-3.897036367561668E-004;2.057514153420925E-003;
2.422833333333334E+009;1.490371227264404E-001;-9.586098790168762E-002;-2.216558641521260E-004;2.108416520059109E-003;
2.423000000000000E+009;1.492494195699692E-001;-9.753011167049408E-002;-3.363595169503242E-004;1.950512640178204E-003;
2.423166666666667E+009;1.495259702205658E-001;-9.914723783731461E-002;-9.660505020292476E-005;2.225928241387010E-003;
2.423333333333334E+009;1.498975008726120E-001;-1.004938855767250E-001;-1.239483844983624E-005;1.945951720699668E-003;
2.423500000000000E+009;1.500588804483414E-001;-1.021976172924042E-001;1.778388686943799E-004;2.028110669925809E-003;
2.423666666666667E+009;1.500754058361054E-001;-1.037570014595985E-001;1.005035883281380E-004;2.005364047363401E-003;
2.423833333333334E+009;1.507768630981445E-001;-1.052729040384293E-001;4.148815060034394E-004;1.980245346203446E-003;
2.424000000000000E+009;1.510297358036041E-001;-1.065867990255356E-001;4.498589260037988E-004;1.923409407027066E-003;
2.424166666666667E+009;1.514535546302795E-001;-1.079220771789551E-001;5.985398311167955E-004;1.973183825612068E-003;
2.424333333333334E+009;1.521139740943909E-001;-1.090510636568070E-001;6.652827723883092E-004;1.781232305802405E-003;
2.424500000000000E+009;1.527160704135895E-001;-1.102846786379814E-001;7.569481967948377E-004;1.864358317106962E-003;
2.424666666666667E+009;1.532362699508667E-001;-1.112525537610054E-001;9.701006347313523E-004;1.892896601930261E-003;
2.424833333333334E+009;1.535786092281342E-001;-1.122970953583717E-001;9.315680363215506E-004;1.657317741774023E-003;
2.425000000000000E+009;1.540008038282394E-001;-1.134205162525177E-001;9.305339772254229E-004;1.844541169703007E-003;
2.425166666666667E+009;1.544276624917984E-001;-1.142035201191902E-001;9.213121957145631E-004;1.459112041629851E-003;
2.425333333333334E+009;1.548438817262650E-001;-1.149208322167397E-001;9.676341433078051E-004;1.562383607961237E-003;
2.425500000000000E+009;1.553131341934204E-001;-1.157392039895058E-001;1.097702654078603E-003;1.375041087158024E-003;
2.425666666666667E+009;1.554735898971558E-001;-1.163372099399567E-001;9.882802842184901E-004;1.405280665494502E-003;
2.425833333333334E+009;1.557919383049011E-001;-1.169136017560959E-001;1.133210957050324E-003;1.161062857136130E-003;
2.426000000000000E+009;1.560077071189880E-001;-1.173420846462250E-001;1.171477138996124E-003;1.208589645102620E-003;
2.426166666666667E+009;1.563732922077179E-001;-1.178751066327095E-001;1.126383780501783E-003;1.141777262091637E-003;
2.426333333333334E+009;1.562951356172562E-001;-1.183294802904129E-001;1.044245087541640E-003;1.098681474104524E-003;
2.426500000000000E+009;1.564327180385590E-001;-1.184905469417572E-001;1.113561331294477E-003;1.036409172229469E-003;
2.426666666666667E+009;1.564622372388840E-001;-1.186428666114807E-001;1.047016005031765E-003;1.073159393854439E-003;
2.426833333333334E+009;1.562423110008240E-001;-1.188590899109840E-001;1.099928398616612E-003;1.157928258180618E-003;
2.427000000000000E+009;1.559073179960251E-001;-1.193152293562889E-001;9.675351902842522E-004;9.844537125900388E-004;
2.427166666666667E+009;1.556872576475143E-001;-1.191070377826691E-001;1.094004139304161E-003;9.349644533358514E-004;
2.427333333333334E+009;1.551363617181778E-001;-1.192565709352493E-001;1.037272042594850E-003;9.113363339565694E-004;
2.427500000000000E+009;1.546324938535690E-001;-1.194049566984177E-001;1.195302931591868E-003;9.685417171567679E-004;
2.427666666666667E+009;1.540042757987976E-001;-1.195489317178726E-001;1.127449562773109E-003;8.456445066258311E-004;
2.427833333333334E+009;1.532357037067413E-001;-1.196180433034897E-001;9.453907841816545E-004;9.994283318519592E-004;
