# Version 1.00
#
freq[Hz];re:Trc1_S11;im:Trc1_S11;re:Trc2_S21;im:Trc2_S21;
2.400000000000000E+009;1.584926545619965E-001;6.299541145563126E-002;-1.600045012310147E-003;3.244003280997276E-003;
2.400166666666667E+009;1.582605242729187E-001;6.144848465919495E-002;-1.450268318876624E-003;3.110739635303617E-003;
2.400333333333334E+009;1.581450849771500E-001;5.957518145442009E-002;-1.301814452745020E-003;3.439546329900622E-003;
2.400500000000000E+009;1.580722182989121E-001;5.769483745098114E-002;-1.081730471923947E-003;3.284954233095050E-003;
2.400666666666667E+009;1.580198407173157E-001;5.576235428452492E-002;-7.717619300819933E-004;3.383142407983542E-003;
2.400833333333334E+009;1.580663919448853E-001;5.386796221137047E-002;-7.383597549051046E-004;3.381185699254274E-003;
2.401000000000000E+009;1.581846028566361E-001;5.170188471674919E-002;-4.861959023401141E-004;3.340219845995307E-003;
2.401166666666667E+009;1.583777964115143E-001;4.955256730318070E-002;-1.538741489639506E-004;3.447779221460223E-003;
2.401333333333334E+009;1.582974046468735E-001;4.765191674232483E-002;-1.446743990527466E-004;3.454980440437794E-003;
2.401500000000000E+009;1.586459726095200E-001;4.558262601494789E-002;-4.330134106567130E-005;3.421498695388436E-003;
2.401666666666667E+009;1.588837206363678E-001;4.347373917698860E-002;1.477238838560879E-004;3.233367111533880E-003;
2.401833333333334E+009;1.592060774564743E-001;4.140347242355347E-002;2.143736637663096E-004;3.396952524781227E-003;
2.402000000000000E+009;1.594734638929367E-001;3.935033455491066E-002;5.637317080982029E-004;3.233485389500856E-003;
2.402166666666667E+009;1.600746214389801E-001;3.723477944731712E-002;7.864543003961444E-004;3.301310120150447E-003;
2.402333333333334E+009;1.604889929294586E-001;3.543742001056671E-002;1.010708394460380E-003;3.248730208724737E-003;
2.402500000000000E+009;1.612023562192917E-001;3.353054076433182E-002;1.043983153067529E-003;3.064191667363048E-003;
2.402666666666667E+009;1.618910133838654E-001;3.195165842771530E-002;1.153081306256354E-003;2.797265304252505E-003;
2.402833333333334E+009;1.626805365085602E-001;3.021824918687344E-002;1.333376043476164E-003;2.732637571170926E-003;
2.403000000000000E+009;1.633856445550919E-001;2.810985967516899E-002;1.342992880381644E-003;2.499710768461227E-003;
2.403166666666667E+009;1.641407459974289E-001;2.677412144839764E-002;1.553428475745022E-003;2.473679604008794E-003;
2.403333333333334E+009;1.653757989406586E-001;2.525643631815910E-002;1.473015407100320E-003;2.352081937715411E-003;
2.403500000000000E+009;1.660623103380203E-001;2.375221438705921E-002;1.739531871862710E-003;2.300775377079845E-003;
2.403666666666667E+009;1.669834405183792E-001;2.216176502406597E-002;1.800458878278732E-003;2.096626674756408E-003;
2.403833333333334E+009;1.680211275815964E-001;2.092367783188820E-002;1.732709584757686E-003;1.953441882506013E-003;
2.404000000000000E+009;1.690294742584229E-001;1.987507008016110E-002;1.723514520563185E-003;1.898953458294272E-003;
2.404166666666667E+009;1.699800193309784E-001;1.851295866072178E-002;1.841394812799990E-003;1.773478812538087E-003;
2.404333333333334E+009;1.709813475608826E-001;1.744887046515942E-002;2.070253249257803E-003;1.764441723935306E-003;
2.404500000000000E+009;1.717627048492432E-001;1.637323759496212E-002;1.993037294596434E-003;1.475459197536111E-003;
2.404666666666667E+009;1.727581173181534E-001;1.552486512809992E-002;2.075712895020843E-003;1.319507951848209E-003;
2.404833333333334E+009;1.738462895154953E-001;1.464261300861836E-002;1.945207128301263E-003;1.378412591293454E-003;
2.405000000000000E+009;1.745787709951401E-001;1.383758429437876E-002;2.104867948219180E-003;1.182486186735332E-003;
2.405166666666667E+009;1.755080223083496E-001;1.306798029690981E-002;2.160167554393411E-003;1.144405803643167E-003;
2.405333333333334E+009;1.763318032026291E-001;1.243053283542395E-002;1.996195176616311E-003;9.566727676428855E-004;
2.405500000000000E+009;1.769943386316299E-001;1.204161159694195E-002;2.115152776241303E-003;9.281297097913921E-004;
2.405666666666667E+009;1.778571903705597E-001;1.158996485173702E-002;2.146350452676415E-003;7.941842195577920E-004;
2.405833333333334E+009;1.783326417207718E-001;1.120794378221035E-002;2.157096518203616E-003;7.844706997275353E-004;
2.406000000000000E+009;1.789956092834473E-001;1.065830141305924E-002;2.154223155230284E-003;8.275244617834687E-004;
2.406166666666667E+009;1.795242726802826E-001;1.043598819524050E-002;2.272640122100711E-003;5.454025813378394E-004;
2.406333333333334E+009;1.799915879964829E-001;1.004514470696449E-002;2.313092583790422E-003;4.861424094997346E-004;
2.406500000000000E+009;1.803633868694305E-001;9.738613851368427E-003;2.248693257570267E-003;4.516621120274067E-004;
2.406666666666667E+009;1.803853511810303E-001;9.480348788201809E-003;2.310788957402110E-003;1.861364580690861E-004;
2.406833333333334E+009;1.807958185672760E-001;9.125852957367897E-003;2.335321856662631E-003;2.390271110925824E-004;
2.407000000000000E+009;1.808442920446396E-001;8.862379007041454E-003;2.221577567979693E-003;-4.996077768737450E-005;
2.407166666666667E+009;1.809508055448532E-001;8.461000397801399E-003;2.236081520095468E-003;-2.652293478604406E-004;
2.407333333333334E+009;1.808083504438400E-001;8.026950992643833E-003;2.214012900367379E-003;-2.902635897044092E-004;
2.407500000000000E+009;1.808308064937592E-001;7.721057627350092E-003;2.109485445544124E-003;-3.462744934950024E-004;
2.407666666666667E+009;1.805922091007233E-001;7.280651945620775E-003;2.147224964573979E-003;-5.425773561000824E-004;
2.407833333333334E+009;1.801915466785431E-001;6.651694420725107E-003;2.020001178607345E-003;-7.037072791717947E-004;
2.408000000000000E+009;1.798936277627945E-001;6.237308494746685E-003;1.933435094542801E-003;-7.151702302508056E-004;
2.408166666666667E+009;1.794168055057526E-001;5.635552108287811E-003;1.963145565241575E-003;-7.939020288176835E-004;
2.408333333333334E+009;1.790521293878555E-001;4.945054184645414E-003;1.804382773116231E-003;-9.995311265811324E-004;
2.408500000000000E+009;1.786179691553116E-001;4.237518645823002E-003;1.885492936708033E-003;-1.002244418486953E-003;
2.408666666666667E+009;1.780568510293961E-001;3.241805126890540E-003;1.859057694673538E-003;-1.091735437512398E-003;
2.408833333333334E+009;1.773005872964859E-001;2.416216302663088E-003;1.621080562472343E-003;-1.189398579299450E-003;
2.409000000000000E+009;1.765152961015701E-001;1.574722817167640E-003;1.565478742122650E-003;-1.039144117385149E-003;
2.409166666666667E+009;1.760016828775406E-001;3.281863464508206E-004;1.417683670297265E-003;-1.428924966603518E-003;
2.409333333333334E+009;1.752910614013672E-001;-8.362159715034068E-004;1.349229249171913E-003;-1.460918458178639E-003;
2.409500000000000E+009;1.746196150779724E-001;-2.187952864915133E-003;1.291844178922474E-003;-1.422420842573047E-003;
2.409666666666667E+009;1.737554967403412E-001;-3.385097254067659E-003;1.191468676552177E-003;-1.453227712772787E-003;
2.409833333333334E+009;1.730080544948578E-001;-4.766011610627174E-003;9.900644654408097E-004;-1.526669133454561E-003;
2.410000000000000E+009;1.725574284791946E-001;-6.143438164144754E-003;9.331218316219747E-004;-1.619347021915019E-003;
2.410166666666667E+009;1.717655062675476E-001;-7.697393186390400E-003;9.651905857026577E-004;-1.533193280920386E-003;
2.410333333333334E+009;1.711684316396713E-001;-9.350381791591644E-003;8.559282287023962E-004;-1.701499917544425E-003;
2.410500000000000E+009;1.706345230340958E-001;-1.093049254268408E-002;7.511102012358606E-004;-1.747052301652730E-003;
2.410666666666667E+009;1.700607687234879E-001;-1.274527329951525E-002;6.518923328258097E-004;-1.698885345831513E-003;
2.410833333333334E+009;1.695673763751984E-001;-1.426181942224503E-002;5.574261886067689E-004;-1.671806327067316E-003;
2.411000000000000E+009;1.692092120647430E-001;-1.624426990747452E-002;3.148383693769574E-004;-1.749395625665784E-003;
2.411166666666667E+009;1.688770502805710E-001;-1.830469258129597E-002;3.947165678255260E-004;-1.623273943550885E-003;
2.411333333333334E+009;1.684801578521729E-001;-2.008009701967239E-002;3.463707689661533E-004;-1.649968093261123E-003;
2.411500000000000E+009;1.680686771869659E-001;-2.205338887870312E-002;1.884650846477598E-004;-1.756612327881157E-003;
2.411666666666667E+009;1.682874858379364E-001;-2.393893711268902E-002;1.143801418947987E-004;-1.673886785283685E-003;
2.411833333333334E+009;1.681243777275085E-001;-2.572908811271191E-002;1.015654852380976E-004;-1.555678085424006E-003;
2.412000000000000E+009;1.681568622589111E-001;-2.795735374093056E-002;-1.692381338216364E-004;-1.618854934349656E-003;
2.412166666666667E+009;1.679633110761643E-001;-2.977879531681538E-002;-1.456491154385731E-004;-1.553750829771161E-003;
2.412333333333334E+009;1.683951765298843E-001;-3.177255019545555E-002;-3.005424805451185E-004;-1.483897212892771E-003;
2.412500000000000E+009;1.684190630912781E-001;-3.362589329481125E-002;-2.963791775982827E-004;-1.590261003002524E-003;
2.412666666666667E+009;1.688686758279800E-001;-3.566840663552284E-002;-5.338322953321040E-004;-1.417521270923317E-003;
2.412833333333334E+009;1.690994650125504E-001;-3.750333189964294E-002;-4.388384404592216E-004;-1.411798410117626E-003;
2.413000000000000E+009;1.694613099098206E-001;-3.935819119215012E-002;-4.663608560804278E-004;-1.354315085336566E-003;
2.413166666666667E+009;1.698521673679352E-001;-4.118386656045914E-002;-6.211954751051962E-004;-1.316849375143647E-003;
2.413333333333334E+009;1.703426837921143E-001;-4.272551462054253E-002;-5.558393895626068E-004;-1.341351191513240E-003;
2.413500000000000E+009;1.707419902086258E-001;-4.434978961944580E-002;-6.110777030698955E-004;-1.227835076861084E-003;
2.413666666666667E+009;1.713107973337174E-001;-4.618066176772118E-002;-7.125659030862153E-004;-1.216903910972178E-003;
2.413833333333334E+009;1.717650294303894E-001;-4.762724786996841E-002;-7.644305005669594E-004;-1.205825945362449E-003;
2.414000000000000E+009;1.722534149885178E-001;-4.908324405550957E-002;-7.164172711782157E-004;-1.132677192799747E-003;
2.414166666666667E+009;1.730585396289825E-001;-5.037192255258560E-002;-8.683867054060102E-004;-9.127587545663118E-004;
2.414333333333334E+009;1.733678728342056E-001;-5.174679309129715E-002;-8.847281569615006E-004;-9.913280373439193E-004;
2.414500000000000E+009;1.741747707128525E-001;-5.308983102440834E-002;-7.578317308798432E-004;-9.257136844098568E-004;
2.414666666666667E+009;1.744821518659592E-001;-5.396005138754845E-002;-8.128526387736201E-004;-9.012056398205459E-004;
2.414833333333334E+009;1.750064343214035E-001;-5.507345125079155E-002;-9.514020057395101E-004;-8.994654053822160E-004;
2.415000000000000E+009;1.754795461893082E-001;-5.590637028217316E-002;-8.599286666139960E-004;-8.149047498591244E-004;
2.415166666666667E+009;1.759820729494095E-001;-5.672924593091011E-002;-9.208793635480106E-004;-6.529924576170743E-004;
2.415333333333334E+009;1.763956099748612E-001;-5.760734528303146E-002;-9.911311790347099E-004;-7.742298184894025E-004;
2.415500000000000E+009;1.766432225704193E-001;-5.820775777101517E-002;-1.004096353426576E-003;-7.982265087775886E-004;
2.415666666666667E+009;1.769308000802994E-001;-5.864040553569794E-002;-9.627168183214963E-004;-6.715070921927691E-004;
2.415833333333334E+009;1.772964298725128E-001;-5.929843336343765E-002;-1.024656114168465E-003;-6.380057893693447E-004;
2.416000000000000E+009;1.772976964712143E-001;-5.973082035779953E-002;-1.020131167024374E-003;-5.908413440920413E-004;
2.416166666666667E+009;1.774818301200867E-001;-6.018662080168724E-002;-1.118377433158457E-003;-6.751967594027519E-004;
2.416333333333334E+009;1.775278598070145E-001;-6.047720834612846E-002;-1.093126134946942E-003;-5.833242321386933E-004;
2.416500000000000E+009;1.773842573165894E-001;-6.075724214315414E-002;-1.027307822369039E-003;-4.290924698580056E-004;
2.416666666666667E+009;1.772402524948120E-001;-6.104324385523796E-002;-9.866966865956783E-004;-4.814109124708921E-004;
2.416833333333334E+009;1.771028190851212E-001;-6.135239452123642E-002;-1.191633404232562E-003;-5.862915422767401E-004;
2.417000000000000E+009;1.766193658113480E-001;-6.163193285465241E-002;-1.223098719492555E-003;-6.004250608384609E-004;
2.417166666666667E+009;1.762893795967102E-001;-6.181545183062553E-002;-1.250304630957544E-003;-3.649870632216334E-004;
2.417333333333334E+009;1.758252084255219E-001;-6.180392205715179E-002;-1.292715198360384E-003;-4.649049369618297E-004;
2.417500000000000E+009;1.751575171947479E-001;-6.218396872282028E-002;-1.363377785310149E-003;-3.372516366653144E-004;
2.417666666666667E+009;1.745757013559341E-001;-6.234209239482880E-002;-1.308608916588128E-003;-4.091354785487056E-004;
2.417833333333334E+009;1.738637834787369E-001;-6.252899765968323E-002;-1.381199457682669E-003;-4.067154368385673E-004;
2.418000000000000E+009;1.728379875421524E-001;-6.303869187831879E-002;-1.356347580440342E-003;-1.653388899285346E-004;
2.418166666666667E+009;1.719678640365601E-001;-6.311064958572388E-002;-1.436767983250320E-003;-7.863745850045234E-005;
2.418333333333334E+009;1.713045537471771E-001;-6.362048536539078E-002;-1.470508635975421E-003;-1.441879721824080E-004;
2.418500000000000E+009;1.700933575630188E-001;-6.392093747854233E-002;-1.572922337800264E-003;-9.970184328267351E-005;
2.418666666666667E+009;1.691780835390091E-001;-6.445360183715820E-002;-1.511601265519857E-003;1.149241288658232E-004;
2.418833333333334E+009;1.678591519594193E-001;-6.493864953517914E-002;-1.709945965558291E-003;1.098965076380409E-004;
2.419000000000000E+009;1.667020022869110E-001;-6.549817323684692E-002;-1.617209170944989E-003;2.348479465581477E-004;
2.419166666666667E+009;1.656153202056885E-001;-6.606426090002060E-002;-1.616749912500382E-003;2.103540755342692E-004;
2.419333333333334E+009;1.642519980669022E-001;-6.664120405912399E-002;-1.797645236365497E-003;3.134533471893519E-004;
2.419500000000000E+009;1.632170081138611E-001;-6.759475171566010E-002;-1.621501287445426E-003;3.338831011205912E-004;
2.419666666666667E+009;1.619092822074890E-001;-6.854279339313507E-002;-1.690154313109815E-003;5.689932731911540E-004;
2.419833333333334E+009;1.606648862361908E-001;-6.922245770692825E-002;-1.629824633710086E-003;7.065306999720633E-004;
2.420000000000000E+009;1.596367806196213E-001;-7.021247595548630E-002;-1.542342710308731E-003;6.430530338548124E-004;
2.420166666666667E+009;1.585424542427063E-001;-7.132826745510101E-002;-1.584991696290672E-003;9.730054880492389E-004;
2.420333333333334E+009;1.573749333620071E-001;-7.271133363246918E-002;-1.567928353324533E-003;9.344835998490453E-004;
2.420500000000000E+009;1.565853357315064E-001;-7.372325658798218E-002;-1.512479851953685E-003;9.415914537385106E-004;
2.420666666666667E+009;1.553781628608704E-001;-7.488832622766495E-002;-1.565760350786150E-003;1.090217381715775E-003;
2.420833333333334E+009;1.544148176908493E-001;-7.644259184598923E-002;-1.391899189911783E-003;1.180718070827425E-003;
2.421000000000000E+009;1.535789072513580E-001;-7.788877934217453E-002;-1.298675895668566E-003;1.292825443670154E-003;
2.421166666666667E+009;1.528003960847855E-001;-7.929846644401550E-002;-1.241080928593874E-003;1.456611091271043E-003;
2.421333333333334E+009;1.520898491144180E-001;-8.079252392053604E-002;-1.190760056488216E-003;1.487363479100168E-003;
2.421500000000000E+009;1.513414680957794E-001;-8.255644142627716E-002;-1.222889870405197E-003;1.420504413545132E-003;
2.421666666666667E+009;1.508138775825501E-001;-8.409340679645538E-002;-9.603370563127101E-004;1.597951515577734E-003;
2.421833333333334E+009;1.503797322511673E-001;-8.562202751636505E-002;-6.977621815167368E-004;1.690844539552927E-003;
2.422000000000000E+009;1.498512029647827E-001;-8.734510093927383E-002;-7.014892180450261E-004;1.819155877456069E-003;
2.422166666666667E+009;1.496231257915497E-001;-8.917903900146484E-002;-6.960451137274504E-004;1.615110202692449E-003;
2.422333333333334E+009;1.493793874979019E-001;-9.079267829656601E-002;-4.644659056793898E-004;1.821148442104459E-003;
2.422500000000000E+009;1.491283178329468E-001;-9.226200729608536E-002;-4.678121767938137E-004;1.756128040142357E-003;
2.422666666666667E+009;1.490116119384766E-001;-9.405674785375595E-002;-3.786305605899543E-004;1.833134097978473E-003;
2.422833333333334E+009;1.492396295070648E-001;-9.585109353065491E-002;-2.833167091012001E-004;1.901369541883469E-003;
2.423000000000000E+009;1.493694037199020E-001;-9.748467803001404E-002;-2.379071956966072E-004;1.827699830755591E-003;
2.423166666666667E+009;1.495858430862427E-001;-9.910210222005844E-002;-3.839192868326791E-005;1.899963594041765E-003;
2.423333333333334E+009;1.498295068740845E-001;-1.005768254399300E-001;-1.367705863231095E-005;1.926136203110218E-003;
2.423500000000000E+009;1.499609351158142E-001;-1.021199598908424E-001;-1.041663381329272E-005;1.873272820375860E-003;
2.423666666666667E+009;1.503403782844544E-001;-1.036798954010010E-001;1.458946353523061E-004;1.839301432482898E-003;
2.423833333333334E+009;1.507172584533691E-001;-1.052702516317368E-001;3.672767779789865E-004;1.746639958582819E-003;
2.424000000000000E+009;1.511001139879227E-001;-1.065326109528542E-001;4.396081203594804E-004;1.760908518917859E-003;
2.424166666666667E+009;1.515450328588486E-001;-1.077194511890411E-001;4.963575629517436E-004;1.783899497240782E-003;
2.424333333333334E+009;1.521206200122833E-001;-1.090775132179260E-001;6.004386814311147E-004;1.696054008789361E-003;
2.424500000000000E+009;1.525197029113770E-001;-1.103164702653885E-001;7.271044887602329E-004;1.802999060600996E-003;
2.424666666666667E+009;1.532208770513535E-001;-1.112097948789597E-001;7.085924153216183E-004;1.617126981727779E-003;
2.424833333333334E+009;1.535055637359619E-001;-1.123516410589218E-001;8.314591832458973E-004;1.563595724292100E-003;
2.425000000000000E+009;1.540222615003586E-001;-1.134714484214783E-001;7.616307702846825E-004;1.342560281045735E-003;
2.425166666666667E+009;1.543340384960175E-001;-1.141976267099381E-001;8.870645542629063E-004;1.399158150888979E-003;
2.425333333333334E+009;1.548768132925034E-001;-1.149151772260666E-001;1.004794146865606E-003;1.325664925388992E-003;
2.425500000000000E+009;1.553597897291184E-001;-1.156365051865578E-001;9.166641975753009E-004;1.332358806394041E-003;
2.425666666666667E+009;1.554172486066818E-001;-1.162851229310036E-001;8.418906363658607E-004;1.173576922155917E-003;
2.425833333333334E+009;1.557321995496750E-001;-1.168589442968369E-001;9.513174300082028E-004;1.200408209115267E-003;
2.426000000000000E+009;1.559819430112839E-001;-1.174254119396210E-001;9.454473620280623E-004;1.270990003831685E-003;
2.426166666666667E+009;1.563163101673126E-001;-1.179035604000092E-001;1.100287423469126E-003;1.041089533828199E-003;
2.426333333333334E+009;1.563927531242371E-001;-1.182663366198540E-001;9.934817207977176E-004;1.081041176803410E-003;
2.426500000000000E+009;1.564952582120895E-001;-1.183599159121513E-001;9.315880597569048E-004;8.615524275228381E-004;
2.426666666666667E+009;1.565091013908386E-001;-1.186245754361153E-001;1.146892434917390E-003;1.054051332175732E-003;
2.426833333333334E+009;1.561954319477081E-001;-1.188301444053650E-001;9.527131333015859E-004;8.577801636420190E-004;
2.427000000000000E+009;1.560794264078140E-001;-1.191108077764511E-001;1.045550452545285E-003;1.027754391543567E-003;
2.427166666666667E+009;1.556183695793152E-001;-1.191232353448868E-001;1.092205755412579E-003;8.990322821773589E-004;
2.427333333333334E+009;1.550639867782593E-001;-1.192642077803612E-001;9.638540796004236E-004;9.070895030163229E-004;
2.427500000000000E+009;1.546642184257507E-001;-1.192996874451637E-001;9.269628790207207E-004;8.736734162084758E-004;
2.427666666666667E+009;1.541344821453095E-001;-1.194588765501976E-001;1.133203273639083E-003;8.097848622128367E-004;
2.427833333333334E+009;1.532648652791977E-001;-1.195917874574661E-001;1.070357044227421E-003;9.332638001069427E-004;
