# Version 1.00
#
freq[Hz];re:Trc1_S11;im:Trc1_S11;re:Trc2_S21;im:Trc2_S21;
2.400000000000000E+009;1.551392227411270E-001;1.093872934579849E-001;3.031721804291010E-003;3.422962035983801E-003;
2.400166666666667E+009;1.548380255699158E-001;1.069935485720635E-001;2.902608364820480E-003;3.478591330349445E-003;
2.400333333333334E+009;1.547413766384125E-001;1.046924665570259E-001;3.093915758654475E-003;3.276763949543238E-003;
2.400500000000000E+009;1.545509696006775E-001;1.021121814846993E-001;3.201018087565899E-003;3.232502611353993E-003;
2.400666666666667E+009;1.545651853084564E-001;9.971559047698975E-002;3.154940437525511E-003;2.993045607581735E-003;
2.400833333333334E+009;1.544676572084427E-001;9.666679799556732E-002;3.243712475523353E-003;2.941653132438660E-003;
2.401000000000000E+009;1.545358896255493E-001;9.410235285758972E-002;3.262966871261597E-003;2.742905868217349E-003;
2.401166666666667E+009;1.544552445411682E-001;9.120985865592957E-002;3.268289379775524E-003;2.823244547471404E-003;
2.401333333333334E+009;1.548720300197601E-001;8.837635070085526E-002;3.283481812104583E-003;2.664945321157575E-003;
2.401500000000000E+009;1.552428454160690E-001;8.534271270036697E-002;3.401614027097821E-003;2.661939011886716E-003;
2.401666666666667E+009;1.553492546081543E-001;8.241847157478333E-002;3.514747601002455E-003;2.455716487020254E-003;
2.401833333333334E+009;1.559658646583557E-001;7.977879792451859E-002;3.497979138046503E-003;2.472337568178773E-003;
2.402000000000000E+009;1.566924154758453E-001;7.683523744344711E-002;3.698566928505898E-003;2.601274289190769E-003;
2.402166666666667E+009;1.575080007314682E-001;7.422845065593720E-002;3.788705915212631E-003;2.534969011321664E-003;
2.402333333333334E+009;1.583427041769028E-001;7.144743204116821E-002;3.915590234100819E-003;2.322960412129760E-003;
2.402500000000000E+009;1.594674438238144E-001;6.872172653675079E-002;4.092228133231401E-003;2.292572055011988E-003;
2.402666666666667E+009;1.606404036283493E-001;6.622731685638428E-002;4.239200614392757E-003;2.287973882630467E-003;
2.402833333333334E+009;1.618502289056778E-001;6.380243599414825E-002;4.617755301296711E-003;2.193730324506760E-003;
2.403000000000000E+009;1.634567230939865E-001;6.123367697000504E-002;4.710059612989426E-003;1.814745948649943E-003;
2.403166666666667E+009;1.649999916553497E-001;5.904034897685051E-002;4.861624445766211E-003;1.860360498540103E-003;
2.403333333333334E+009;1.664535701274872E-001;5.668095871806145E-002;4.873520694673061E-003;1.396820298396051E-003;
2.403500000000000E+009;1.683771908283234E-001;5.471854656934738E-002;5.090459249913693E-003;1.144060050137341E-003;
2.403666666666667E+009;1.701389849185944E-001;5.261003598570824E-002;5.193748045712709E-003;7.096898043528199E-004;
2.403833333333334E+009;1.718354076147080E-001;5.092442035675049E-002;5.515480414032936E-003;7.088156417012215E-004;
2.404000000000000E+009;1.736133545637131E-001;4.853883385658264E-002;4.849140532314777E-003;2.001310167543124E-005;
2.404166666666667E+009;1.751035153865814E-001;4.696619510650635E-002;5.228554829955101E-003;-8.474703463434707E-006;
2.404333333333334E+009;1.767216473817825E-001;4.563066735863686E-002;5.015674512833357E-003;-4.083558087586425E-005;
2.404500000000000E+009;1.779073774814606E-001;4.404738917946816E-002;4.159575328230858E-003;5.732607096433640E-004;
2.404666666666667E+009;1.805162876844406E-001;4.245020449161530E-002;5.386277101933956E-003;-1.243005157448351E-003;
2.404833333333334E+009;1.812699437141419E-001;4.138202965259552E-002;3.987730015069246E-003;-5.135625833645463E-004;
2.405000000000000E+009;1.835584044456482E-001;4.100408777594566E-002;4.763516597449780E-003;-8.955359808169305E-004;
2.405166666666667E+009;1.849304288625717E-001;4.035513848066330E-002;4.722343757748604E-003;-1.215516123920679E-003;
2.405333333333334E+009;1.869643330574036E-001;3.959452733397484E-002;4.676567856222391E-003;-1.358567620627582E-003;
2.405500000000000E+009;1.878698468208313E-001;3.919794782996178E-002;4.204552620649338E-003;-1.121512148529291E-003;
2.405666666666667E+009;1.895646601915360E-001;3.888292610645294E-002;4.826148506253958E-003;-1.632447354495525E-003;
2.405833333333334E+009;1.909180879592896E-001;3.883602842688561E-002;4.989531822502613E-003;-1.673919381573796E-003;
2.406000000000000E+009;1.919793039560318E-001;3.829490765929222E-002;4.254914820194244E-003;-2.021157415583730E-003;
2.406166666666667E+009;1.931641250848770E-001;3.811876848340035E-002;4.232234787195921E-003;-2.222080715000629E-003;
2.406333333333334E+009;1.941249370574951E-001;3.817151859402657E-002;4.116051830351353E-003;-2.334111835807562E-003;
2.406500000000000E+009;1.949115544557571E-001;3.841949999332428E-002;3.942696377635002E-003;-2.621219959110022E-003;
2.406666666666667E+009;1.957265734672546E-001;3.845532611012459E-002;3.817634889855981E-003;-2.656890312209725E-003;
2.406833333333334E+009;1.964883953332901E-001;3.852011635899544E-002;3.786429995670915E-003;-2.874370198696852E-003;
2.407000000000000E+009;1.968967616558075E-001;3.881522268056870E-002;3.571732668206096E-003;-2.997625619173050E-003;
2.407166666666667E+009;1.973632127046585E-001;3.872396051883698E-002;3.388419048860669E-003;-3.057706169784069E-003;
2.407333333333334E+009;1.973912268877029E-001;3.904905915260315E-002;3.476517740637064E-003;-3.078631125390530E-003;
2.407500000000000E+009;1.974441856145859E-001;3.933696448802948E-002;3.355389228090644E-003;-3.257382893934846E-003;
2.407666666666667E+009;1.976040899753571E-001;3.940378129482269E-002;3.158611478284001E-003;-3.422842361032963E-003;
2.407833333333334E+009;1.973224878311157E-001;3.949499875307083E-002;2.844312693923712E-003;-3.506527282297611E-003;
2.408000000000000E+009;1.972956955432892E-001;3.931501880288124E-002;2.586322836577892E-003;-3.586685983464122E-003;
2.408166666666667E+009;1.968092620372772E-001;3.923714160919190E-002;2.467082813382149E-003;-3.660380141809583E-003;
2.408333333333334E+009;1.963471770286560E-001;3.889213502407074E-002;2.317789709195495E-003;-3.545299638062716E-003;
2.408500000000000E+009;1.957749277353287E-001;3.870226815342903E-002;2.129503060132265E-003;-3.647095989435911E-003;
2.408666666666667E+009;1.951602250337601E-001;3.831389546394348E-002;2.087341621518135E-003;-3.656032029539347E-003;
2.408833333333334E+009;1.944621354341507E-001;3.776717185974121E-002;1.749131595715880E-003;-3.722785972058773E-003;
2.409000000000000E+009;1.935055851936340E-001;3.695672750473023E-002;1.601805794052780E-003;-3.693118691444397E-003;
2.409166666666667E+009;1.926028132438660E-001;3.613197058439255E-002;1.667975564487279E-003;-3.755540819838643E-003;
2.409333333333334E+009;1.917367577552795E-001;3.520081564784050E-002;1.432510442100465E-003;-3.688120748847723E-003;
2.409500000000000E+009;1.905552446842194E-001;3.404714539647102E-002;1.317046699114144E-003;-3.688122611492872E-003;
2.409666666666667E+009;1.895002275705338E-001;3.264834731817246E-002;1.245800754986703E-003;-3.612487111240625E-003;
2.409833333333334E+009;1.883006840944290E-001;3.141459822654724E-002;1.271164976060391E-003;-3.695652354508638E-003;
2.410000000000000E+009;1.873769760131836E-001;2.971997857093811E-002;1.118530752137303E-003;-3.731533419340849E-003;
2.410166666666667E+009;1.862434744834900E-001;2.812110446393490E-002;9.337762603536248E-004;-3.816276323050261E-003;
2.410333333333334E+009;1.852888017892838E-001;2.630921825766563E-002;7.964940741658211E-004;-3.745838766917586E-003;
2.410500000000000E+009;1.840788871049881E-001;2.456449531018734E-002;7.255448726937175E-004;-3.715306753292680E-003;
2.410666666666667E+009;1.832372546195984E-001;2.226150408387184E-002;6.096536526456475E-004;-3.774110693484545E-003;
2.410833333333334E+009;1.823605448007584E-001;2.014874294400215E-002;2.794374595396221E-004;-3.793350653722882E-003;
2.411000000000000E+009;1.815266162157059E-001;1.791478320956230E-002;1.708157360553742E-004;-3.778188256546855E-003;
2.411166666666667E+009;1.809024512767792E-001;1.591473817825317E-002;9.830897397478111E-006;-3.629557555541396E-003;
2.411333333333334E+009;1.802079379558563E-001;1.321065332740545E-002;-2.042696869466454E-004;-3.764283843338490E-003;
2.411500000000000E+009;1.795267015695572E-001;1.095828134566546E-002;-3.974942665081471E-004;-3.470603376626968E-003;
2.411666666666667E+009;1.793680489063263E-001;8.469687774777412E-003;-4.210211045574397E-004;-3.420113818719983E-003;
2.411833333333334E+009;1.790208369493485E-001;6.102902814745903E-003;-5.012190085835755E-004;-3.271723864600062E-003;
2.412000000000000E+009;1.789233237504959E-001;3.360042581334710E-003;-6.479622097685933E-004;-3.119088010862470E-003;
2.412166666666667E+009;1.791369765996933E-001;8.796383626759052E-004;-7.099704234860838E-004;-3.168441355228424E-003;
2.412333333333334E+009;1.792156398296356E-001;-1.518678269349039E-003;-5.775873432867229E-004;-3.031292930245400E-003;
2.412500000000000E+009;1.795109361410141E-001;-4.145684186369181E-003;-7.326281047426164E-004;-2.974543487653136E-003;
2.412666666666667E+009;1.799618750810623E-001;-6.623650435358286E-003;-7.697163382545114E-004;-2.699736505746841E-003;
2.412833333333334E+009;1.806970834732056E-001;-9.250525385141373E-003;-6.486449856311083E-004;-2.594886580482125E-003;
2.413000000000000E+009;1.811996251344681E-001;-1.163248345255852E-002;-5.925204604864121E-004;-2.618307014927268E-003;
2.413166666666667E+009;1.820169389247894E-001;-1.394164096564055E-002;-5.284508224576712E-004;-2.580234082415700E-003;
2.413333333333334E+009;1.830805540084839E-001;-1.629891619086266E-002;-6.111483671702445E-004;-2.556464169174433E-003;
2.413500000000000E+009;1.839540153741837E-001;-1.887067407369614E-002;-5.243572522886097E-004;-2.568073105067015E-003;
2.413666666666667E+009;1.851468086242676E-001;-2.103944122791290E-002;-5.616057896986604E-004;-2.568322001025081E-003;
2.413833333333334E+009;1.862442791461945E-001;-2.320186607539654E-002;-6.099862512201071E-004;-2.706044120714068E-003;
2.414000000000000E+009;1.872969567775726E-001;-2.533578686416149E-002;-4.974828916601837E-004;-2.665579086169601E-003;
2.414166666666667E+009;1.885842829942703E-001;-2.727620489895344E-002;-8.460272219963372E-004;-2.743063727393746E-003;
2.414333333333334E+009;1.897597759962082E-001;-2.931706607341766E-002;-8.906400762498379E-004;-2.774111926555634E-003;
2.414500000000000E+009;1.910264045000076E-001;-3.091323003172875E-002;-9.672479354776442E-004;-2.729195170104504E-003;
2.414666666666667E+009;1.920615583658218E-001;-3.239057585597038E-002;-1.066433964297175E-003;-2.585774287581444E-003;
2.414833333333334E+009;1.933622509241104E-001;-3.392331674695015E-002;-1.211326452903450E-003;-2.715134061872959E-003;
2.415000000000000E+009;1.945915222167969E-001;-3.543459996581078E-002;-1.226717140525580E-003;-2.674083923920989E-003;
2.415166666666667E+009;1.959587782621384E-001;-3.646911308169365E-002;-1.264379243366420E-003;-2.413172507658601E-003;
2.415333333333334E+009;1.971398442983627E-001;-3.753720596432686E-002;-1.443185145035386E-003;-2.508240286260843E-003;
2.415500000000000E+009;1.983323991298676E-001;-3.829833120107651E-002;-1.508932444266975E-003;-2.405751729384065E-003;
2.415666666666667E+009;1.995148509740830E-001;-3.923099488019943E-002;-1.350291771814227E-003;-2.219063928350806E-003;
2.415833333333334E+009;2.005189508199692E-001;-3.985823690891266E-002;-1.554269460029900E-003;-2.222409704700112E-003;
2.416000000000000E+009;2.012791335582733E-001;-4.051233455538750E-002;-1.575063448399305E-003;-2.135949442163110E-003;
2.416166666666667E+009;2.022132575511932E-001;-4.106612876057625E-002;-1.540561555884779E-003;-2.122547011822462E-003;
2.416333333333334E+009;2.028189003467560E-001;-4.132569953799248E-002;-1.525510335341096E-003;-2.134939190000296E-003;
2.416500000000000E+009;2.034341841936112E-001;-4.162280634045601E-002;-1.506333705037832E-003;-2.053773030638695E-003;
2.416666666666667E+009;2.039159685373306E-001;-4.197364300489426E-002;-1.561909215524793E-003;-2.316102618351579E-003;
2.416833333333334E+009;2.041534185409546E-001;-4.179410263895989E-002;-1.419563428498805E-003;-2.013226971030235E-003;
2.417000000000000E+009;2.043762505054474E-001;-4.202903807163239E-002;-1.435457495972514E-003;-2.226643497124314E-003;
2.417166666666667E+009;2.042931765317917E-001;-4.187329113483429E-002;-1.427744398824871E-003;-2.351682167500258E-003;
2.417333333333334E+009;2.040930092334747E-001;-4.167091473937035E-002;-1.567956176586449E-003;-2.443968318402767E-003;
2.417500000000000E+009;2.040680944919586E-001;-4.165677353739739E-002;-1.691530924290419E-003;-2.466517267748714E-003;
2.417666666666667E+009;2.035424709320068E-001;-4.139598086476326E-002;-1.711982418783009E-003;-2.502424409613013E-003;
2.417833333333334E+009;2.031473815441132E-001;-4.118327796459198E-002;-1.649430836550891E-003;-2.485550008714199E-003;
2.418000000000000E+009;2.025657445192337E-001;-4.071592167019844E-002;-1.981562003493309E-003;-2.532854210585356E-003;
2.418166666666667E+009;2.018889784812927E-001;-4.066704586148262E-002;-2.236346481367946E-003;-2.642878331243992E-003;
2.418333333333334E+009;2.010415941476822E-001;-4.053262993693352E-002;-2.450250321999192E-003;-2.476962748914957E-003;
2.418500000000000E+009;2.001176327466965E-001;-4.040600359439850E-002;-2.681535668671131E-003;-2.468575257807970E-003;
2.418666666666667E+009;1.990906149148941E-001;-4.028066247701645E-002;-2.771018072962761E-003;-2.407591091468930E-003;
2.418833333333334E+009;1.978589147329330E-001;-4.031369462609291E-002;-2.894758014008403E-003;-2.449104096740484E-003;
2.419000000000000E+009;1.966502964496613E-001;-4.045602306723595E-002;-3.274507587775588E-003;-2.156443195417523E-003;
2.419166666666667E+009;1.954331845045090E-001;-4.064820334315300E-002;-3.390226513147354E-003;-2.095450647175312E-003;
2.419333333333334E+009;1.939948201179504E-001;-4.106473922729492E-002;-3.332152031362057E-003;-1.762625528499484E-003;
2.419500000000000E+009;1.925246715545654E-001;-4.141860827803612E-002;-3.536516567692161E-003;-1.784236403182149E-003;
2.419666666666667E+009;1.907682865858078E-001;-4.194360598921776E-002;-3.597874427214265E-003;-1.600782969035208E-003;
2.419833333333334E+009;1.891395598649979E-001;-4.266631975769997E-002;-3.678777255117893E-003;-1.320845447480679E-003;
2.420000000000000E+009;1.876456588506699E-001;-4.341838881373406E-002;-3.605678910389543E-003;-1.252433983609080E-003;
2.420166666666667E+009;1.859142035245895E-001;-4.437641054391861E-002;-3.710161428898573E-003;-1.002303091809154E-003;
2.420333333333334E+009;1.842447519302368E-001;-4.549920558929443E-002;-3.759911051020026E-003;-9.241948137059808E-004;
2.420500000000000E+009;1.826044023036957E-001;-4.674706608057022E-002;-3.586626611649990E-003;-7.673192303627729E-004;
2.420666666666667E+009;1.806329935789108E-001;-4.778570681810379E-002;-3.662906587123871E-003;-7.144346600398421E-004;
2.420833333333334E+009;1.790744662284851E-001;-4.924757033586502E-002;-3.474181750789285E-003;-4.963090177625418E-004;
2.421000000000000E+009;1.775551140308380E-001;-5.080890655517578E-002;-3.765627741813660E-003;-3.570007393136621E-004;
2.421166666666667E+009;1.759838163852692E-001;-5.251520499587059E-002;-3.634703345596790E-003;-2.139763382729143E-004;
2.421333333333334E+009;1.742852181196213E-001;-5.397170037031174E-002;-3.743186360225081E-003;-1.143648623838089E-004;
2.421500000000000E+009;1.727108657360077E-001;-5.617085099220276E-002;-3.704059170559049E-003;-1.288554049097002E-004;
2.421666666666667E+009;1.715973615646362E-001;-5.778592452406883E-002;-3.614221001043916E-003;1.089381330530159E-004;
2.421833333333334E+009;1.702284961938858E-001;-5.978948622941971E-002;-3.807970555499196E-003;3.181400243192911E-004;
2.422000000000000E+009;1.691193878650665E-001;-6.163132190704346E-002;-3.534672083333135E-003;4.542517417576164E-004;
2.422166666666667E+009;1.678957343101502E-001;-6.380769610404968E-002;-3.611357649788261E-003;5.128931370563805E-004;
2.422333333333334E+009;1.667753309011459E-001;-6.580847501754761E-002;-3.718100022524595E-003;7.591890753246844E-004;
2.422500000000000E+009;1.661103516817093E-001;-6.787639111280441E-002;-3.514724550768733E-003;8.528476464562118E-004;
2.422666666666667E+009;1.652688086032867E-001;-7.007755339145660E-002;-3.443940542638302E-003;1.160020008683205E-003;
2.422833333333334E+009;1.647012978792191E-001;-7.218180596828461E-002;-3.530987538397312E-003;1.322641037404537E-003;
2.423000000000000E+009;1.641930490732193E-001;-7.447479665279388E-002;-3.374121151864529E-003;1.307304133661091E-003;
2.423166666666667E+009;1.637948006391525E-001;-7.626983523368835E-002;-3.226841334253550E-003;1.626500277779996E-003;
2.423333333333334E+009;1.634626239538193E-001;-7.854247093200684E-002;-3.021153155714274E-003;1.641592942178249E-003;
2.423500000000000E+009;1.634269207715988E-001;-8.047264069318771E-002;-3.055639797821641E-003;1.777904457412660E-003;
2.423666666666667E+009;1.635398864746094E-001;-8.240660279989243E-002;-2.775646280497313E-003;1.992320874705911E-003;
2.423833333333334E+009;1.632894873619080E-001;-8.434820175170898E-002;-2.745774108916521E-003;1.840661861933768E-003;
2.424000000000000E+009;1.635178774595261E-001;-8.630551397800446E-002;-2.552715595811606E-003;1.856382121331990E-003;
2.424166666666667E+009;1.635219007730484E-001;-8.796697109937668E-002;-2.410099841654301E-003;2.088004723191261E-003;
2.424333333333334E+009;1.639622896909714E-001;-8.977627009153366E-002;-2.388328546658158E-003;2.047956222668290E-003;
2.424500000000000E+009;1.642774343490601E-001;-9.151681512594223E-002;-2.139943884685636E-003;2.142892451956868E-003;
2.424666666666667E+009;1.646078526973724E-001;-9.297822415828705E-002;-2.135740127414465E-003;2.108094515278935E-003;
2.424833333333334E+009;1.651128083467484E-001;-9.454423189163208E-002;-2.106094500049949E-003;2.277955412864685E-003;
2.425000000000000E+009;1.655299514532089E-001;-9.569130092859268E-002;-1.925740041770041E-003;2.172597451135516E-003;
2.425166666666667E+009;1.659205853939056E-001;-9.700888395309448E-002;-1.792482333257794E-003;2.310880692675710E-003;
2.425333333333334E+009;1.663931608200073E-001;-9.798691421747208E-002;-1.664342125877738E-003;2.371616428717971E-003;
2.425500000000000E+009;1.670479774475098E-001;-9.919787943363190E-002;-1.637104083783925E-003;2.292555524036288E-003;
2.425666666666667E+009;1.674081385135651E-001;-9.993119537830353E-002;-1.376833533868194E-003;2.233776729553938E-003;
2.425833333333334E+009;1.678424030542374E-001;-1.007815152406693E-001;-1.316164270974696E-003;2.326621208339930E-003;
2.426000000000000E+009;1.684634089469910E-001;-1.012848392128944E-001;-1.235070638358593E-003;2.365215914323926E-003;
2.426166666666667E+009;1.689372360706329E-001;-1.018210127949715E-001;-1.200142316520214E-003;2.197383204475045E-003;
2.426333333333334E+009;1.691211909055710E-001;-1.025163158774376E-001;-1.023026416078210E-003;2.166757127270103E-003;
2.426500000000000E+009;1.697527468204498E-001;-1.027201265096664E-001;-8.386672125197947E-004;2.290254458785057E-003;
2.426666666666667E+009;1.700822860002518E-001;-1.029444560408592E-001;-9.001964353956282E-004;2.281278371810913E-003;
2.426833333333334E+009;1.705301403999329E-001;-1.032442450523377E-001;-8.595007820986211E-004;2.230376936495304E-003;
2.427000000000000E+009;1.705782711505890E-001;-1.035249084234238E-001;-9.592665010131896E-004;2.188273472711444E-003;
2.427166666666667E+009;1.707016378641129E-001;-1.037312671542168E-001;-6.681128288619220E-004;2.146964659914374E-003;
2.427333333333334E+009;1.708599627017975E-001;-1.037714555859566E-001;-5.904958816245198E-004;1.970083452761173E-003;
2.427500000000000E+009;1.707926094532013E-001;-1.039342507719994E-001;-6.844501476734877E-004;1.934949425049126E-003;
2.427666666666667E+009;1.705534756183624E-001;-1.040183603763580E-001;-6.431516958400607E-004;1.839863951317966E-003;
