# Version 1.00
#
freq[Hz];re:Trc1_S11;im:Trc1_S11;re:Trc2_S21;im:Trc2_S21;
2.400000000000000E+009;1.553349345922470E-001;1.087623611092567E-001;2.662243088707328E-003;3.535730298608542E-003;
2.400166666666667E+009;1.548756808042526E-001;1.065201014280319E-001;3.049327526241541E-003;3.480094019323587E-003;
2.400333333333334E+009;1.546928733587265E-001;1.043825373053551E-001;3.007989842444658E-003;3.277494572103024E-003;
2.400500000000000E+009;1.545977592468262E-001;1.017324775457382E-001;3.179031191393733E-003;3.163729561492801E-003;
2.400666666666667E+009;1.547113060951233E-001;9.924267977476120E-002;3.138732630759478E-003;3.181444481015205E-003;
2.400833333333334E+009;1.545395851135254E-001;9.626059234142304E-002;3.276259871199727E-003;2.951647853478789E-003;
2.401000000000000E+009;1.546252667903900E-001;9.358005225658417E-002;3.278554882854223E-003;2.854611957445741E-003;
2.401166666666667E+009;1.544952541589737E-001;9.053450077772141E-002;3.392864717170596E-003;2.768076956272125E-003;
2.401333333333334E+009;1.547116339206696E-001;8.800678700208664E-002;3.382810624316335E-003;2.783427247777581E-003;
2.401500000000000E+009;1.551620960235596E-001;8.480194211006165E-002;3.467467613518238E-003;2.656130352988839E-003;
2.401666666666667E+009;1.554835885763168E-001;8.200760185718536E-002;3.406898584216833E-003;2.539566485211253E-003;
2.401833333333334E+009;1.558890491724014E-001;7.924561202526093E-002;3.564740531146526E-003;2.580525819212198E-003;
2.402000000000000E+009;1.567871272563934E-001;7.636738568544388E-002;3.740552347153425E-003;2.469094470143318E-003;
2.402166666666667E+009;1.572488844394684E-001;7.371342182159424E-002;3.671794664114714E-003;2.463751239702106E-003;
2.402333333333334E+009;1.584338247776032E-001;7.101625949144363E-002;3.929899074137211E-003;2.438962925225496E-003;
2.402500000000000E+009;1.593304276466370E-001;6.838800013065338E-002;4.034518264234066E-003;2.442280063405633E-003;
2.402666666666667E+009;1.605813950300217E-001;6.594420969486237E-002;4.159154370427132E-003;2.348452340811491E-003;
2.402833333333334E+009;1.616031974554062E-001;6.343586742877960E-002;4.433181136846542E-003;2.241072244942188E-003;
2.403000000000000E+009;1.631368696689606E-001;6.090666353702545E-002;4.599698819220066E-003;1.955050509423018E-003;
2.403166666666667E+009;1.647317260503769E-001;5.863238871097565E-002;4.783007781952620E-003;1.743457047268748E-003;
2.403333333333334E+009;1.662783473730087E-001;5.634351819753647E-002;4.935862496495247E-003;1.602418022230268E-003;
2.403500000000000E+009;1.680315583944321E-001;5.409291014075279E-002;5.151600576937199E-003;1.224559615366161E-003;
2.403666666666667E+009;1.698671877384186E-001;5.227308720350266E-002;5.130754783749580E-003;1.100173685699701E-003;
2.403833333333334E+009;1.715490818023682E-001;5.015480145812035E-002;5.248682573437691E-003;7.960184593684971E-004;
2.404000000000000E+009;1.732047051191330E-001;4.821033030748367E-002;5.072887986898422E-003;4.046723479405046E-004;
2.404166666666667E+009;1.749383360147476E-001;4.667642712593079E-002;5.152571946382523E-003;2.490974438842386E-004;
2.404333333333334E+009;1.766951084136963E-001;4.496883973479271E-002;5.242377519607544E-003;-1.531321322545409E-004;
2.404500000000000E+009;1.783683747053146E-001;4.347701743245125E-002;5.215440876781941E-003;-4.312877717893571E-004;
2.404666666666667E+009;1.801198571920395E-001;4.239358380436897E-002;4.908822476863861E-003;-5.712591228075326E-004;
2.404833333333334E+009;1.819212734699249E-001;4.130066931247711E-002;5.093037616461515E-003;-8.041784749366343E-004;
2.405000000000000E+009;1.832326799631119E-001;4.061716422438622E-002;4.785068333148956E-003;-1.106167677789927E-003;
2.405166666666667E+009;1.847590506076813E-001;3.980048000812531E-002;4.945722874253988E-003;-1.294659567065537E-003;
2.405333333333334E+009;1.862761527299881E-001;3.932474926114082E-002;4.767186008393765E-003;-1.328843180090189E-003;
2.405500000000000E+009;1.878802329301834E-001;3.875555470585823E-002;4.669510293751955E-003;-1.596492365933955E-003;
2.405666666666667E+009;1.891705840826035E-001;3.845946490764618E-002;4.486892838031054E-003;-1.676348736509681E-003;
2.405833333333334E+009;1.905390024185181E-001;3.807421028614044E-002;4.492067266255617E-003;-1.871226355433464E-003;
2.406000000000000E+009;1.917103528976440E-001;3.801888599991798E-002;4.307355266064405E-003;-2.076535951346159E-003;
2.406166666666667E+009;1.926194429397583E-001;3.787172213196755E-002;4.268192686140537E-003;-2.171853324398398E-003;
2.406333333333334E+009;1.936711817979813E-001;3.790073096752167E-002;4.211590625345707E-003;-2.394731156527996E-003;
2.406500000000000E+009;1.946221292018890E-001;3.804552182555199E-002;3.986450377851725E-003;-2.441855147480965E-003;
2.406666666666667E+009;1.953521668910980E-001;3.807051852345467E-002;3.939701244235039E-003;-2.616464160382748E-003;
2.406833333333334E+009;1.960314661264420E-001;3.817267343401909E-002;3.813490970060229E-003;-2.718752250075340E-003;
2.407000000000000E+009;1.964746266603470E-001;3.868549317121506E-002;3.584369318559766E-003;-2.893291879445314E-003;
2.407166666666667E+009;1.970094740390778E-001;3.854813054203987E-002;3.678856883198023E-003;-3.021235344931483E-003;
2.407333333333334E+009;1.969417631626129E-001;3.887356817722321E-002;3.435362828895450E-003;-3.066208446398377E-003;
2.407500000000000E+009;1.970824301242828E-001;3.911025077104569E-002;3.180420491844416E-003;-3.229085355997086E-003;
2.407666666666667E+009;1.970756798982620E-001;3.912848979234695E-002;3.053255379199982E-003;-3.383903298527002E-003;
2.407833333333334E+009;1.967225521802902E-001;3.921634703874588E-002;2.989866537973285E-003;-3.465898567810655E-003;
2.408000000000000E+009;1.968589425086975E-001;3.923457860946655E-002;2.823489252477884E-003;-3.418396692723036E-003;
2.408166666666667E+009;1.961890757083893E-001;3.915023431181908E-002;2.669111825525761E-003;-3.650864586234093E-003;
2.408333333333334E+009;1.959363520145416E-001;3.887433558702469E-002;2.501230686903000E-003;-3.728839335963130E-003;
2.408500000000000E+009;1.953450590372086E-001;3.866780176758766E-002;2.209037076681852E-003;-3.647188656032085E-003;
2.408666666666667E+009;1.946954131126404E-001;3.818026185035706E-002;2.075420925393701E-003;-3.804873442277312E-003;
2.408833333333334E+009;1.940334290266037E-001;3.764782845973969E-002;2.069412032142282E-003;-3.704169066622853E-003;
2.409000000000000E+009;1.930477023124695E-001;3.691684454679489E-002;1.820538658648729E-003;-3.651986364275217E-003;
2.409166666666667E+009;1.921262294054031E-001;3.602831810712814E-002;1.725126290693879E-003;-3.667397424578667E-003;
2.409333333333334E+009;1.912001073360443E-001;3.511592000722885E-002;1.534064766019583E-003;-3.697580657899380E-003;
2.409500000000000E+009;1.902378052473068E-001;3.392626345157623E-002;1.572423032484949E-003;-3.715323982760310E-003;
2.409666666666667E+009;1.889498233795166E-001;3.282438218593597E-002;1.485613291151822E-003;-3.529337234795094E-003;
2.409833333333334E+009;1.878727078437805E-001;3.135184571146965E-002;1.248976914212108E-003;-3.711080178618431E-003;
2.410000000000000E+009;1.868938356637955E-001;2.996960468590260E-002;1.148490235209465E-003;-3.650502534583211E-003;
2.410166666666667E+009;1.858775317668915E-001;2.821126952767372E-002;1.069382182322443E-003;-3.608254715800285E-003;
2.410333333333334E+009;1.847057044506073E-001;2.652578800916672E-002;7.217935053631663E-004;-3.947959281504154E-003;
2.410500000000000E+009;1.836096942424774E-001;2.450416609644890E-002;5.205516354180872E-004;-3.740158630535007E-003;
2.410666666666667E+009;1.828866600990295E-001;2.247971296310425E-002;8.128585177473724E-004;-3.660351736471057E-003;
2.410833333333334E+009;1.819804459810257E-001;2.018164098262787E-002;3.007435589097440E-004;-3.770590526983142E-003;
2.411000000000000E+009;1.812735944986343E-001;1.789467595517635E-002;3.892489767167717E-004;-3.772006137296557E-003;
2.411166666666667E+009;1.805221736431122E-001;1.583769172430039E-002;8.052108751144260E-005;-3.642720868811011E-003;
2.411333333333334E+009;1.799720078706741E-001;1.329585164785385E-002;-8.476570656057447E-005;-3.478349186480045E-003;
2.411500000000000E+009;1.793229430913925E-001;1.106270495802164E-002;-1.122657049563713E-004;-3.610910847783089E-003;
2.411666666666667E+009;1.789810806512833E-001;8.704226464033127E-003;-2.836781204678118E-004;-3.360402770340443E-003;
2.411833333333334E+009;1.787254065275192E-001;6.209034007042646E-003;-3.671673766802996E-004;-3.253868082538247E-003;
2.412000000000000E+009;1.787002980709076E-001;3.654832718893886E-003;-3.295890055596829E-004;-3.205338027328253E-003;
2.412166666666667E+009;1.788496524095535E-001;1.168321003206074E-003;-4.940836224704981E-004;-3.057194408029318E-003;
2.412333333333334E+009;1.788714081048966E-001;-1.290057087317109E-003;-4.855844017583877E-004;-2.912057098001242E-003;
2.412500000000000E+009;1.792061477899551E-001;-3.908274695277214E-003;-6.069947849027813E-004;-2.897759201005101E-003;
2.412666666666667E+009;1.795867979526520E-001;-6.537064444273710E-003;-6.043589091859758E-004;-2.897132653743029E-003;
2.412833333333334E+009;1.802791506052017E-001;-8.997962810099125E-003;-6.173239671625197E-004;-2.746867947280407E-003;
2.413000000000000E+009;1.809458434581757E-001;-1.136555336415768E-002;-4.901587963104248E-004;-2.575782127678394E-003;
2.413166666666667E+009;1.818479597568512E-001;-1.372740883380175E-002;-5.098475376144052E-004;-2.581572625786066E-003;
2.413333333333334E+009;1.827880740165710E-001;-1.618523709475994E-002;-4.487298429012299E-004;-2.715315902605653E-003;
2.413500000000000E+009;1.836300790309906E-001;-1.869481243193150E-002;-4.670947673730552E-004;-2.705069724470377E-003;
2.413666666666667E+009;1.848536431789398E-001;-2.074266225099564E-002;-4.321911546867341E-004;-2.693587681278586E-003;
2.413833333333334E+009;1.860691606998444E-001;-2.296417020261288E-002;-5.439749802462757E-004;-2.781539689749479E-003;
2.414000000000000E+009;1.870419085025787E-001;-2.517470531165600E-002;-5.750874988734722E-004;-2.794674597680569E-003;
2.414166666666667E+009;1.882726550102234E-001;-2.701607719063759E-002;-6.374008953571320E-004;-2.747679594904184E-003;
2.414333333333334E+009;1.895459741353989E-001;-2.895006351172924E-002;-8.898609667085111E-004;-2.781292656436563E-003;
2.414500000000000E+009;1.907167583703995E-001;-3.056886419653893E-002;-7.973443134687841E-004;-2.881612395867705E-003;
2.414666666666667E+009;1.918641179800034E-001;-3.219559416174889E-002;-1.032308326102793E-003;-2.732443623244762E-003;
2.414833333333334E+009;1.931319981813431E-001;-3.363755345344544E-002;-1.198794227093458E-003;-2.616233658045530E-003;
2.415000000000000E+009;1.943625956773758E-001;-3.504037111997604E-002;-1.243628445081413E-003;-2.646198961883783E-003;
2.415166666666667E+009;1.957325488328934E-001;-3.621186316013336E-002;-1.368751050904393E-003;-2.534681232646108E-003;
2.415333333333334E+009;1.969971507787705E-001;-3.718428686261177E-002;-1.334304339252412E-003;-2.593690762296319E-003;
2.415500000000000E+009;1.981263309717178E-001;-3.803632780909538E-002;-1.515559270046651E-003;-2.594111952930689E-003;
2.415666666666667E+009;1.992237120866776E-001;-3.892341256141663E-002;-1.367919147014618E-003;-2.499528694897890E-003;
2.415833333333334E+009;2.002400010824204E-001;-3.959383442997932E-002;-1.486531808041036E-003;-2.447061240673065E-003;
2.416000000000000E+009;2.011702358722687E-001;-4.001208394765854E-002;-1.379355089738965E-003;-2.222624607384205E-003;
2.416166666666667E+009;2.020166367292404E-001;-4.071831703186035E-002;-1.362986629828811E-003;-2.280352637171745E-003;
2.416333333333334E+009;2.027184963226318E-001;-4.092898964881897E-002;-1.492677838541567E-003;-2.288867719471455E-003;
2.416500000000000E+009;2.034198194742203E-001;-4.121753945946693E-002;-1.389472046867013E-003;-2.144404221326113E-003;
2.416666666666667E+009;2.037358433008194E-001;-4.154257103800774E-002;-1.383061287924647E-003;-2.142441459000111E-003;
2.416833333333334E+009;2.041132152080536E-001;-4.157413542270660E-002;-1.427146024070680E-003;-2.242148621007800E-003;
2.417000000000000E+009;2.042991518974304E-001;-4.171925038099289E-002;-1.371649093925953E-003;-2.153351670131087E-003;
2.417166666666667E+009;2.041756808757782E-001;-4.149795696139336E-002;-1.380261499434710E-003;-2.384132239967585E-003;
2.417333333333334E+009;2.040909826755524E-001;-4.130796343088150E-002;-1.417786697857082E-003;-2.469665138050914E-003;
2.417500000000000E+009;2.039358466863632E-001;-4.127890616655350E-002;-1.565517275594175E-003;-2.552916994318366E-003;
2.417666666666667E+009;2.035519778728485E-001;-4.101547598838806E-002;-1.673021237365902E-003;-2.635393291711807E-003;
2.417833333333334E+009;2.031086385250092E-001;-4.075971618294716E-002;-1.947713317349553E-003;-2.697935793548822E-003;
2.418000000000000E+009;2.024891078472138E-001;-4.047605022788048E-002;-2.132115885615349E-003;-2.748307073488832E-003;
2.418166666666667E+009;2.018098533153534E-001;-4.019817709922791E-002;-2.296409336850047E-003;-2.673219423741102E-003;
2.418333333333334E+009;2.011102139949799E-001;-4.008586332201958E-002;-2.524732844904065E-003;-2.602602588012815E-003;
2.418500000000000E+009;2.000589370727539E-001;-4.003764316439629E-002;-2.725736238062382E-003;-2.658034907653928E-003;
2.418666666666667E+009;1.991279274225235E-001;-3.979497030377388E-002;-2.879118779674172E-003;-2.581428037956357E-003;
2.418833333333334E+009;1.979772299528122E-001;-3.987406566739082E-002;-3.168354742228985E-003;-2.401219913735986E-003;
2.419000000000000E+009;1.965720057487488E-001;-4.002368822693825E-002;-3.268733853474259E-003;-2.351072384044528E-003;
2.419166666666667E+009;1.953430324792862E-001;-4.029109701514244E-002;-3.258795710280538E-003;-2.052304334938526E-003;
2.419333333333334E+009;1.939133852720261E-001;-4.063130170106888E-002;-3.534750547260046E-003;-1.955562038347125E-003;
2.419500000000000E+009;1.924396157264710E-001;-4.096889868378639E-002;-3.496131626889110E-003;-1.746308291330934E-003;
2.419666666666667E+009;1.908829361200333E-001;-4.181707650423050E-002;-3.603055374696851E-003;-1.594698289409280E-003;
2.419833333333334E+009;1.892881244421005E-001;-4.232852533459663E-002;-3.640489187091589E-003;-1.475835917517543E-003;
2.420000000000000E+009;1.876168102025986E-001;-4.318318143486977E-002;-3.648453624919057E-003;-9.859807323664427E-004;
2.420166666666667E+009;1.859933733940125E-001;-4.397858679294586E-002;-3.755396232008934E-003;-1.016227412037551E-003;
2.420333333333334E+009;1.842169910669327E-001;-4.510443657636643E-002;-3.652198007330298E-003;-9.721593814902008E-004;
2.420500000000000E+009;1.824380904436112E-001;-4.635969176888466E-002;-3.649375401437283E-003;-8.009869488887489E-004;
2.420666666666667E+009;1.808584779500961E-001;-4.761576652526856E-002;-3.650647820904851E-003;-5.885391146875918E-004;
2.420833333333334E+009;1.791464090347290E-001;-4.910020157694817E-002;-3.762865671887994E-003;-4.862551868427545E-004;
2.421000000000000E+009;1.777124702930450E-001;-5.049016326665878E-002;-3.774010110646486E-003;-4.641328705474734E-004;
2.421166666666667E+009;1.759785562753677E-001;-5.215618386864662E-002;-3.662864910438657E-003;-3.323765704408288E-004;
2.421333333333334E+009;1.742304861545563E-001;-5.382373929023743E-002;-3.834167029708624E-003;-2.545082825236023E-004;
2.421500000000000E+009;1.727883517742157E-001;-5.556348338723183E-002;-3.846012055873871E-003;-1.504474203102291E-004;
2.421666666666667E+009;1.716224998235703E-001;-5.761894956231117E-002;-3.814223920926452E-003;-2.435971509839874E-005;
2.421833333333334E+009;1.703650802373886E-001;-5.950193479657173E-002;-3.737241961061955E-003;3.016230766661465E-004;
2.422000000000000E+009;1.692174226045609E-001;-6.146807596087456E-002;-3.825508290901780E-003;3.504600608721376E-004;
2.422166666666667E+009;1.680483967065811E-001;-6.367123872041702E-002;-3.780737752094865E-003;6.177168688736856E-004;
2.422333333333334E+009;1.671429574489594E-001;-6.567948311567307E-002;-3.713282989338040E-003;8.268690435215831E-004;
2.422500000000000E+009;1.661615818738937E-001;-6.768908351659775E-002;-3.661044174805284E-003;9.745974675752223E-004;
2.422666666666667E+009;1.653777360916138E-001;-6.994456052780151E-002;-3.633031155914068E-003;1.173847238533199E-003;
2.422833333333334E+009;1.649460494518280E-001;-7.203974574804306E-002;-3.384335897862911E-003;1.277858507819474E-003;
2.423000000000000E+009;1.644195020198822E-001;-7.406826317310333E-002;-3.357797628268600E-003;1.311291358433664E-003;
2.423166666666667E+009;1.639453023672104E-001;-7.600373029708862E-002;-3.420426975935698E-003;1.603356678970158E-003;
2.423333333333334E+009;1.636474281549454E-001;-7.840128988027573E-002;-3.268174361437559E-003;1.762140076607466E-003;
2.423500000000000E+009;1.634910553693771E-001;-8.017156273126602E-002;-3.081300528720021E-003;1.716174767352641E-003;
2.423666666666667E+009;1.635584682226181E-001;-8.227179199457169E-002;-2.978043863549829E-003;2.010187599807978E-003;
2.423833333333334E+009;1.635517925024033E-001;-8.417463302612305E-002;-2.914659678936005E-003;1.912411069497466E-003;
2.424000000000000E+009;1.637321859598160E-001;-8.611235022544861E-002;-2.738832496106625E-003;1.831276691518724E-003;
2.424166666666667E+009;1.638212502002716E-001;-8.769911527633667E-002;-2.516025910153985E-003;2.244176575914025E-003;
2.424333333333334E+009;1.640779078006744E-001;-8.944638818502426E-002;-2.468178048729897E-003;2.200447488576174E-003;
2.424500000000000E+009;1.645446121692658E-001;-9.137568622827530E-002;-2.344246022403240E-003;2.122060162946582E-003;
2.424666666666667E+009;1.647860407829285E-001;-9.279286116361618E-002;-2.110544824972749E-003;2.303233835846186E-003;
2.424833333333334E+009;1.654434353113174E-001;-9.422503411769867E-002;-2.003430621698499E-003;2.409745007753372E-003;
2.425000000000000E+009;1.658863425254822E-001;-9.554337710142136E-002;-1.998397521674633E-003;2.306489972397685E-003;
2.425166666666667E+009;1.661728322505951E-001;-9.671109169721603E-002;-1.947664306499064E-003;2.300498774275184E-003;
2.425333333333334E+009;1.667003184556961E-001;-9.786507487297058E-002;-1.850304775871337E-003;2.485093194991350E-003;
2.425500000000000E+009;1.672141999006271E-001;-9.889385104179382E-002;-1.797846402041614E-003;2.342289779335260E-003;
2.425666666666667E+009;1.677417755126953E-001;-9.960463643074036E-002;-1.611827989108861E-003;2.434723079204559E-003;
2.425833333333334E+009;1.680175364017487E-001;-1.006173565983772E-001;-1.422250294126570E-003;2.419761149212718E-003;
2.426000000000000E+009;1.686855405569077E-001;-1.009943559765816E-001;-1.247979467734695E-003;2.373363589867950E-003;
2.426166666666667E+009;1.691470295190811E-001;-1.017514169216156E-001;-1.337258028797805E-003;2.417122945189476E-003;
2.426333333333334E+009;1.694034039974213E-001;-1.022193506360054E-001;-1.036023488268256E-003;2.398331649601460E-003;
2.426500000000000E+009;1.699328124523163E-001;-1.026599481701851E-001;-1.025211066007614E-003;2.257626503705978E-003;
2.426666666666667E+009;1.703813076019287E-001;-1.029165536165237E-001;-8.818104397505522E-004;2.252937061712146E-003;
2.426833333333334E+009;1.706693768501282E-001;-1.032079234719276E-001;-9.446315816603601E-004;2.152335597202182E-003;
2.427000000000000E+009;1.709050536155701E-001;-1.034255698323250E-001;-9.641376091167331E-004;2.134391572326422E-003;
2.427166666666667E+009;1.709919124841690E-001;-1.035166457295418E-001;-7.073593442328274E-004;2.190004568547010E-003;
2.427333333333334E+009;1.711217761039734E-001;-1.036889925599098E-001;-7.859650650061667E-004;2.036089776083827E-003;
2.427500000000000E+009;1.708597242832184E-001;-1.037764176726341E-001;-6.562205962836742E-004;2.067881170660257E-003;
2.427666666666667E+009;1.708514094352722E-001;-1.038413122296333E-001;-7.861491758376360E-004;1.949360244907439E-003;
