# Version 1.00
#
freq[Hz];re:Trc1_S11;im:Trc1_S11;re:Trc2_S21;im:Trc2_S21;
2.400000000000000E+009;1.552450507879257E-001;1.093284413218498E-001;2.762336051091552E-003;3.703811904415488E-003;
2.400166666666667E+009;1.550036668777466E-001;1.071167364716530E-001;2.910669194534421E-003;3.432994475588203E-003;
2.400333333333334E+009;1.548092812299728E-001;1.048446074128151E-001;3.097038017585874E-003;3.378872992470861E-003;
2.400500000000000E+009;1.546281278133392E-001;1.021544262766838E-001;3.195455763489008E-003;3.225752152502537E-003;
2.400666666666667E+009;1.547240614891052E-001;9.955071657896042E-002;3.303854260593653E-003;3.113710088655353E-003;
2.400833333333334E+009;1.544672101736069E-001;9.678485244512558E-002;3.298395546153188E-003;2.916856901720166E-003;
2.401000000000000E+009;1.546178311109543E-001;9.401611238718033E-002;3.366025164723396E-003;2.947713714092970E-003;
2.401166666666667E+009;1.546802520751953E-001;9.135393053293228E-002;3.425332019105554E-003;2.851229393854737E-003;
2.401333333333334E+009;1.548879295587540E-001;8.845943212509155E-002;3.371836151927710E-003;2.666380489245057E-003;
2.401500000000000E+009;1.552227735519409E-001;8.550535887479782E-002;3.450122196227312E-003;2.671431051567197E-003;
2.401666666666667E+009;1.555795073509216E-001;8.261288702487946E-002;3.585746977478266E-003;2.582388697192073E-003;
2.401833333333334E+009;1.559559255838394E-001;7.979743182659149E-002;3.716180566698313E-003;2.495533088222146E-003;
2.402000000000000E+009;1.567655950784683E-001;7.702561467885971E-002;3.724787384271622E-003;2.546060597524047E-003;
2.402166666666667E+009;1.574430614709854E-001;7.448580861091614E-002;3.779558930546045E-003;2.309806644916534E-003;
2.402333333333334E+009;1.582773327827454E-001;7.144983112812042E-002;3.906256053596735E-003;2.362419618293643E-003;
2.402500000000000E+009;1.595377177000046E-001;6.895874440670013E-002;4.240460228174925E-003;2.172354375943542E-003;
2.402666666666667E+009;1.606343686580658E-001;6.652325391769409E-002;4.353250842541456E-003;2.283544978126884E-003;
2.402833333333334E+009;1.618374437093735E-001;6.401059776544571E-002;4.476283676922321E-003;2.030542818829417E-003;
2.403000000000000E+009;1.633332073688507E-001;6.145307794213295E-002;4.716287367045879E-003;2.013504737988114E-003;
2.403166666666667E+009;1.651013493537903E-001;5.933604016900063E-002;4.969505593180656E-003;1.635103020817041E-003;
2.403333333333334E+009;1.664729416370392E-001;5.690583586692810E-002;4.901580046862364E-003;1.355465152300894E-003;
2.403500000000000E+009;1.682491004467011E-001;5.487677082419395E-002;5.116189830005169E-003;1.127783325500786E-003;
2.403666666666667E+009;1.703343540430069E-001;5.278399586677551E-002;5.276149138808250E-003;7.985453703440726E-004;
2.403833333333334E+009;1.720107942819595E-001;5.099935829639435E-002;5.265903193503618E-003;7.047054241411388E-004;
2.404000000000000E+009;1.735128164291382E-001;4.882222041487694E-002;5.237867124378681E-003;3.076393622905016E-004;
2.404166666666667E+009;1.753931194543839E-001;4.727653786540031E-002;5.204115528613329E-003;-1.212594506796449E-004;
2.404333333333334E+009;1.769932955503464E-001;4.566652700304985E-002;5.225555039942265E-003;-1.820764009607956E-004;
2.404500000000000E+009;1.787559390068054E-001;4.406065493822098E-002;5.057866219431162E-003;-5.504884175024927E-004;
2.404666666666667E+009;1.804278194904327E-001;4.300131276249886E-002;5.059552844613791E-003;-8.034333004616201E-004;
2.404833333333334E+009;1.823568940162659E-001;4.182492941617966E-002;4.969657864421606E-003;-9.080679737962782E-004;
2.405000000000000E+009;1.836644560098648E-001;4.106212779879570E-002;4.745925310999155E-003;-1.220808364450932E-003;
2.405166666666667E+009;1.853247433900833E-001;4.015154391527176E-002;4.879571497440338E-003;-1.260484918020666E-003;
2.405333333333334E+009;1.869188845157623E-001;3.977227583527565E-002;4.682227969169617E-003;-1.617539091967046E-003;
2.405500000000000E+009;1.884083449840546E-001;3.910488635301590E-002;4.601828288286924E-003;-1.514862873591483E-003;
2.405666666666667E+009;1.897543370723724E-001;3.866844996809959E-002;4.558599088340998E-003;-1.907480647787452E-003;
2.405833333333334E+009;1.911209076642990E-001;3.846096619963646E-002;4.376767668873072E-003;-1.882236916571856E-003;
2.406000000000000E+009;1.922207921743393E-001;3.815376386046410E-002;4.336251411587000E-003;-2.082449849694967E-003;
2.406166666666667E+009;1.932740062475205E-001;3.815300017595291E-002;4.309471696615219E-003;-2.118015196174383E-003;
2.406333333333334E+009;1.944143772125244E-001;3.836938366293907E-002;4.178418777883053E-003;-2.541362075135112E-003;
2.406500000000000E+009;1.953202784061432E-001;3.822399303317070E-002;4.121717065572739E-003;-2.504316624253988E-003;
2.406666666666667E+009;1.960872560739517E-001;3.833509236574173E-002;4.048273898661137E-003;-2.603014698252082E-003;
2.406833333333334E+009;1.965876072645187E-001;3.857358545064926E-002;3.815553616732359E-003;-2.908124821260572E-003;
2.407000000000000E+009;1.971194744110107E-001;3.877970203757286E-002;3.625353099778295E-003;-3.038394497707486E-003;
2.407166666666667E+009;1.975794881582260E-001;3.863534703850746E-002;3.479256760329008E-003;-3.212243318557739E-003;
2.407333333333334E+009;1.975723654031754E-001;3.894416987895966E-002;3.551122266799212E-003;-3.163655288517475E-003;
2.407500000000000E+009;1.977133005857468E-001;3.919069841504097E-002;3.255133749917150E-003;-3.392008366063237E-003;
2.407666666666667E+009;1.978018134832382E-001;3.925776109099388E-002;3.173859091475606E-003;-3.401682479307056E-003;
2.407833333333334E+009;1.975347548723221E-001;3.924367204308510E-002;2.921683248132467E-003;-3.410787554457784E-003;
2.408000000000000E+009;1.975238174200058E-001;3.919950500130653E-002;2.697338815778494E-003;-3.713440150022507E-003;
2.408166666666667E+009;1.969238668680191E-001;3.908100351691246E-002;2.568716183304787E-003;-3.707863623276353E-003;
2.408333333333334E+009;1.965150982141495E-001;3.875285759568214E-002;2.361986786127091E-003;-3.722801571711898E-003;
2.408500000000000E+009;1.960095912218094E-001;3.852565214037895E-002;2.300006803125143E-003;-3.760783234611154E-003;
2.408666666666667E+009;1.953912079334259E-001;3.813831135630608E-002;2.089281333610416E-003;-3.827457083389163E-003;
2.408833333333334E+009;1.947145313024521E-001;3.760113194584847E-002;2.023373963311315E-003;-3.749049035832286E-003;
2.409000000000000E+009;1.937550157308579E-001;3.684723749756813E-002;1.908913371153176E-003;-3.756881458684802E-003;
2.409166666666667E+009;1.928038895130158E-001;3.603649511933327E-002;1.470675109885633E-003;-3.818788798525930E-003;
2.409333333333334E+009;1.918873041868210E-001;3.502328693866730E-002;1.569560496136546E-003;-3.680499270558357E-003;
2.409500000000000E+009;1.907824426889420E-001;3.398732468485832E-002;1.544309197925031E-003;-3.737354418262839E-003;
2.409666666666667E+009;1.897179484367371E-001;3.255177289247513E-002;1.230238820426166E-003;-3.680831519886851E-003;
2.409833333333334E+009;1.886827051639557E-001;3.128712251782417E-002;1.198593061417341E-003;-3.752641147002578E-003;
2.410000000000000E+009;1.876982897520065E-001;2.975653670728207E-002;1.142217777669430E-003;-3.908947110176086E-003;
2.410166666666667E+009;1.864945143461227E-001;2.801303379237652E-002;9.863923769444227E-004;-3.725764574483037E-003;
2.410333333333334E+009;1.854813545942307E-001;2.615197747945786E-002;8.442424004897475E-004;-3.897941438481212E-003;
2.410500000000000E+009;1.843671947717667E-001;2.429641969501972E-002;7.700725109316409E-004;-3.898691618815064E-003;
2.410666666666667E+009;1.834888458251953E-001;2.209920994937420E-002;5.175577243790031E-004;-3.911096602678299E-003;
2.410833333333334E+009;1.826061606407166E-001;1.991294883191586E-002;2.393728937022388E-004;-3.920567687600851E-003;
2.411000000000000E+009;1.817797124385834E-001;1.785003580152988E-002;1.720437576295808E-004;-3.823473118245602E-003;
2.411166666666667E+009;1.810080558061600E-001;1.567491330206394E-002;-1.281702570850030E-004;-3.758176695555449E-003;
2.411333333333334E+009;1.804867386817932E-001;1.307911518961191E-002;-2.364104584557936E-004;-3.749544965103269E-003;
2.411500000000000E+009;1.797793209552765E-001;1.070369686931372E-002;-3.181570791639388E-004;-3.474807832390070E-003;
2.411666666666667E+009;1.794546395540237E-001;8.357671089470387E-003;-3.104723873548210E-004;-3.637847490608692E-003;
2.411833333333334E+009;1.791711151599884E-001;5.680662114173174E-003;-4.620769759640098E-004;-3.436381230130792E-003;
2.412000000000000E+009;1.792946755886078E-001;3.145950613543391E-003;-5.005349521525204E-004;-3.303314559161663E-003;
2.412166666666667E+009;1.791305243968964E-001;8.502233540639281E-004;-6.305230781435967E-004;-3.189989598467946E-003;
2.412333333333334E+009;1.792380809783936E-001;-1.801307895220816E-003;-7.142546237446368E-004;-2.892975462600589E-003;
2.412500000000000E+009;1.795949190855026E-001;-4.263464827090502E-003;-5.944403237663209E-004;-2.887309994548559E-003;
2.412666666666667E+009;1.798584610223770E-001;-6.775385234504938E-003;-6.772961933165789E-004;-2.766760066151619E-003;
2.412833333333334E+009;1.806427687406540E-001;-9.266844019293785E-003;-5.252010887488723E-004;-2.751167630776763E-003;
2.413000000000000E+009;1.814791560173035E-001;-1.180740352720022E-002;-7.306138286367059E-004;-2.570537850260735E-003;
2.413166666666667E+009;1.820177286863327E-001;-1.415534317493439E-002;-6.286287680268288E-004;-2.673913259059191E-003;
2.413333333333334E+009;1.830810159444809E-001;-1.661228016018868E-002;-6.650349823758006E-004;-2.602091524749994E-003;
2.413500000000000E+009;1.839303076267242E-001;-1.910393126308918E-002;-5.134437815286219E-004;-2.696341834962368E-003;
2.413666666666667E+009;1.851789057254791E-001;-2.138487994670868E-002;-5.214129341766238E-004;-2.750280080363154E-003;
2.413833333333334E+009;1.862396150827408E-001;-2.332856133580208E-002;-6.086957873776555E-004;-2.682275371626020E-003;
2.414000000000000E+009;1.872788518667221E-001;-2.542696520686150E-002;-7.502667722292244E-004;-2.700693439692259E-003;
2.414166666666667E+009;1.885139048099518E-001;-2.729047462344170E-002;-6.666260887868702E-004;-2.823147457093000E-003;
2.414333333333334E+009;1.898013055324554E-001;-2.945041097700596E-002;-8.947800961323082E-004;-2.730685751885176E-003;
2.414500000000000E+009;1.909336000680924E-001;-3.096039965748787E-002;-1.071446225978434E-003;-2.755846362560988E-003;
2.414666666666667E+009;1.921491771936417E-001;-3.245638310909271E-002;-1.070593367330730E-003;-2.786000259220600E-003;
2.414833333333334E+009;1.932903975248337E-001;-3.410147503018379E-002;-1.247372943907976E-003;-2.777783200144768E-003;
2.415000000000000E+009;1.944312602281570E-001;-3.557938709855080E-002;-1.326412311755121E-003;-2.556478837504983E-003;
2.415166666666667E+009;1.958363503217697E-001;-3.659495711326599E-002;-1.552321948111057E-003;-2.568491734564304E-003;
2.415333333333334E+009;1.971222907304764E-001;-3.767362236976624E-002;-1.474926015362144E-003;-2.452105516567826E-003;
2.415500000000000E+009;1.982076913118362E-001;-3.834035992622376E-002;-1.389353536069393E-003;-2.439071191474795E-003;
2.415666666666667E+009;1.993807852268219E-001;-3.930502757430077E-002;-1.688639749772847E-003;-2.417340409010649E-003;
2.415833333333334E+009;2.003079950809479E-001;-3.993069753050804E-002;-1.579656265676022E-003;-2.302390290424228E-003;
2.416000000000000E+009;2.012252211570740E-001;-4.052732512354851E-002;-1.624187454581261E-003;-2.341363113373518E-003;
2.416166666666667E+009;2.019355297088623E-001;-4.112908244132996E-002;-1.456250553019345E-003;-2.139266347512603E-003;
2.416333333333334E+009;2.027903199195862E-001;-4.137037321925163E-002;-1.571093685925007E-003;-2.149131614714861E-003;
2.416500000000000E+009;2.033812850713730E-001;-4.169056192040443E-002;-1.408010721206665E-003;-2.123271115124226E-003;
2.416666666666667E+009;2.038040757179260E-001;-4.199021309614182E-002;-1.431778306141496E-003;-2.068436471745372E-003;
2.416833333333334E+009;2.041353434324265E-001;-4.196985810995102E-002;-1.564184320159257E-003;-2.169810002669692E-003;
2.417000000000000E+009;2.043588608503342E-001;-4.209714010357857E-002;-1.452657510526478E-003;-2.316609257832170E-003;
2.417166666666667E+009;2.040939331054688E-001;-4.196468368172646E-002;-1.511853886768222E-003;-2.327453577890992E-003;
2.417333333333334E+009;2.040264010429382E-001;-4.181335493922234E-002;-1.422506407834590E-003;-2.399065298959613E-003;
2.417500000000000E+009;2.038522809743881E-001;-4.180212691426277E-002;-1.571836881339550E-003;-2.495375694707036E-003;
2.417666666666667E+009;2.035032361745834E-001;-4.152427613735199E-002;-1.914308406412602E-003;-2.606430556625128E-003;
2.417833333333334E+009;2.030551284551621E-001;-4.129188880324364E-002;-1.884626690298319E-003;-2.642764244228602E-003;
2.418000000000000E+009;2.024372965097427E-001;-4.085169360041618E-002;-1.992728328332305E-003;-2.747755032032728E-003;
2.418166666666667E+009;2.017358690500259E-001;-4.078529775142670E-002;-2.163595985621214E-003;-2.719282871112227E-003;
2.418333333333334E+009;2.008942812681198E-001;-4.051976278424263E-002;-2.504401840269566E-003;-2.541562542319298E-003;
2.418500000000000E+009;1.998896896839142E-001;-4.045101627707481E-002;-2.575031248852611E-003;-2.550104632973671E-003;
2.418666666666667E+009;1.990511566400528E-001;-4.036522284150124E-002;-2.927820896729827E-003;-2.442333614453673E-003;
2.418833333333334E+009;1.977220624685288E-001;-4.037119448184967E-002;-2.946611028164625E-003;-2.342039719223976E-003;
2.419000000000000E+009;1.966240555047989E-001;-4.044650122523308E-002;-3.229161025956273E-003;-2.217912115156651E-003;
2.419166666666667E+009;1.952444612979889E-001;-4.072331264615059E-002;-3.290872089564800E-003;-1.936241867952049E-003;
2.419333333333334E+009;1.938334852457047E-001;-4.111733287572861E-002;-3.459439612925053E-003;-1.967988675460219E-003;
2.419500000000000E+009;1.924093067646027E-001;-4.137479141354561E-002;-3.492730436846614E-003;-1.574978814460337E-003;
2.419666666666667E+009;1.907371133565903E-001;-4.214747622609139E-002;-3.621907904744148E-003;-1.524407067336142E-003;
2.419833333333334E+009;1.890530437231064E-001;-4.258642718195915E-002;-3.476346842944622E-003;-1.345207332633436E-003;
2.420000000000000E+009;1.874492466449738E-001;-4.358448088169098E-002;-3.638199297711253E-003;-1.209175447002053E-003;
2.420166666666667E+009;1.858535110950470E-001;-4.432913661003113E-002;-3.698103595525026E-003;-1.061403891071677E-003;
2.420333333333334E+009;1.840542703866959E-001;-4.542826116085053E-002;-3.706190036609769E-003;-7.398577872663736E-004;
2.420500000000000E+009;1.822989135980606E-001;-4.685460776090622E-002;-3.605433041229844E-003;-8.736490854062140E-004;
2.420666666666667E+009;1.806893199682236E-001;-4.778660088777542E-002;-3.681103233247995E-003;-6.994671421125531E-004;
2.420833333333334E+009;1.790457963943481E-001;-4.943589121103287E-002;-3.598539857193828E-003;-5.201018648222089E-004;
2.421000000000000E+009;1.773509830236435E-001;-5.082013085484505E-002;-3.675791900604963E-003;-4.534947220236063E-004;
2.421166666666667E+009;1.758036464452744E-001;-5.257102474570274E-002;-3.766955574974418E-003;-3.919614537153393E-004;
2.421333333333334E+009;1.742048859596252E-001;-5.409600585699081E-002;-3.696917323395610E-003;-1.926327677210793E-004;
2.421500000000000E+009;1.727962493896484E-001;-5.600975826382637E-002;-3.661836963146925E-003;-3.587299215723760E-005;
2.421666666666667E+009;1.713765561580658E-001;-5.781229212880135E-002;-3.831283887848258E-003;1.282552402699366E-004;
2.421833333333334E+009;1.700861454010010E-001;-5.996115133166313E-002;-3.768753726035357E-003;2.441631513647735E-004;
2.422000000000000E+009;1.688883304595947E-001;-6.168990582227707E-002;-3.801547223702073E-003;5.009633023291826E-004;
2.422166666666667E+009;1.678593754768372E-001;-6.392496079206467E-002;-3.775560762733221E-003;6.441115401685238E-004;
2.422333333333334E+009;1.668808311223984E-001;-6.590054929256439E-002;-3.704439150169492E-003;7.768324576318264E-004;
2.422500000000000E+009;1.660314202308655E-001;-6.800276041030884E-002;-3.676137654110789E-003;9.950400562956929E-004;
2.422666666666667E+009;1.652520149946213E-001;-7.012792676687241E-002;-3.454840043559670E-003;1.031404128298163E-003;
2.422833333333334E+009;1.647743731737137E-001;-7.232859730720520E-002;-3.463990287855268E-003;1.305155572481453E-003;
2.423000000000000E+009;1.640307456254959E-001;-7.436736673116684E-002;-3.494326258078218E-003;1.501532620750368E-003;
2.423166666666667E+009;1.637106835842133E-001;-7.641214132308960E-002;-3.374664345756173E-003;1.596565474756062E-003;
2.423333333333334E+009;1.634582728147507E-001;-7.854022085666657E-002;-3.157152794301510E-003;1.743468455970287E-003;
2.423500000000000E+009;1.633794754743576E-001;-8.052629232406616E-002;-2.944741165265441E-003;1.894223038107157E-003;
2.423666666666667E+009;1.633567661046982E-001;-8.248373121023178E-002;-2.722639590501785E-003;1.918586320243776E-003;
2.423833333333334E+009;1.633683294057846E-001;-8.444973081350327E-002;-2.848562318831682E-003;2.021332038566470E-003;
2.424000000000000E+009;1.635085195302963E-001;-8.632466197013855E-002;-2.657169010490179E-003;2.074845368042588E-003;
2.424166666666667E+009;1.634161323308945E-001;-8.798854053020477E-002;-2.579352818429470E-003;2.189180115237832E-003;
2.424333333333334E+009;1.638927310705185E-001;-8.966615051031113E-002;-2.416057279333472E-003;2.161466516554356E-003;
2.424500000000000E+009;1.642546653747559E-001;-9.159742295742035E-002;-2.258240012452006E-003;2.252453239634633E-003;
2.424666666666667E+009;1.644790470600128E-001;-9.306139498949051E-002;-2.177815651521087E-003;2.200982533395290E-003;
2.424833333333334E+009;1.651735305786133E-001;-9.451502561569214E-002;-1.940582878887653E-003;2.182621043175459E-003;
2.425000000000000E+009;1.655065417289734E-001;-9.578012675046921E-002;-1.928504789248109E-003;2.340055769309402E-003;
2.425166666666667E+009;1.659669727087021E-001;-9.692137688398361E-002;-1.918212510645390E-003;2.304316731169820E-003;
2.425333333333334E+009;1.663250774145126E-001;-9.802067279815674E-002;-1.586385769769549E-003;2.329864306375384E-003;
2.425500000000000E+009;1.669023633003235E-001;-9.920085966587067E-002;-1.606930862180889E-003;2.383385319262743E-003;
2.425666666666667E+009;1.673365980386734E-001;-9.985443949699402E-002;-1.380744739435613E-003;2.227840479463339E-003;
2.425833333333334E+009;1.677968949079514E-001;-1.007609292864800E-001;-1.418090425431728E-003;2.500044647604227E-003;
2.426000000000000E+009;1.683873981237412E-001;-1.013259291648865E-001;-1.332664047367871E-003;2.438100287690759E-003;
2.426166666666667E+009;1.688767820596695E-001;-1.018943786621094E-001;-1.281601027585566E-003;2.301167463883758E-003;
2.426333333333334E+009;1.692030131816864E-001;-1.024362742900848E-001;-1.034682150930166E-003;2.228409051895142E-003;
2.426500000000000E+009;1.696604192256928E-001;-1.026324778795242E-001;-9.716564672999084E-004;2.309002680703998E-003;
2.426666666666667E+009;1.700498163700104E-001;-1.030362546443939E-001;-9.375420631840825E-004;2.141624456271529E-003;
2.426833333333334E+009;1.704260259866715E-001;-1.033279076218605E-001;-8.816588087938726E-004;2.248920267447829E-003;
2.427000000000000E+009;1.705536693334580E-001;-1.036073043942452E-001;-6.591367418877780E-004;2.129874192178249E-003;
2.427166666666667E+009;1.707651913166046E-001;-1.036354079842567E-001;-7.744397153146565E-004;2.103121485561132E-003;
2.427333333333334E+009;1.708187162876129E-001;-1.039174199104309E-001;-7.118741050362587E-004;2.011944307014346E-003;
2.427500000000000E+009;1.705556511878967E-001;-1.040085926651955E-001;-6.007176707498729E-004;1.918911584652960E-003;
2.427666666666667E+009;1.704545915126801E-001;-1.039461269974709E-001;-7.720391731709242E-004;1.863439800217748E-003;
