# Version 1.00
#
freq[Hz];re:Trc1_S11;im:Trc1_S11;re:Trc2_S21;im:Trc2_S21;
2.400000000000000E+009;1.553378254175186E-001;1.093192249536514E-001;2.819991204887629E-003;3.663844894617796E-003;
2.400166666666667E+009;1.548948585987091E-001;1.070002391934395E-001;3.060993039980531E-003;3.621695097535849E-003;
2.400333333333334E+009;1.548855453729630E-001;1.046491563320160E-001;3.160026622936130E-003;3.386711468920112E-003;
2.400500000000000E+009;1.547483950853348E-001;1.022370085120201E-001;3.258437616750598E-003;3.125364426523447E-003;
2.400666666666667E+009;1.545901000499725E-001;9.970058500766754E-002;3.224669490009546E-003;3.029535058885813E-003;
2.400833333333334E+009;1.546948999166489E-001;9.683319181203842E-002;3.236365038901568E-003;2.892703749239445E-003;
2.401000000000000E+009;1.545572876930237E-001;9.386980533599854E-002;3.403980750590563E-003;2.798104658722878E-003;
2.401166666666667E+009;1.545858979225159E-001;9.134926646947861E-002;3.371320897713304E-003;2.656971104443073E-003;
2.401333333333334E+009;1.548809111118317E-001;8.846686780452728E-002;3.377418732270598E-003;2.684803446754813E-003;
2.401500000000000E+009;1.551961749792099E-001;8.541886508464813E-002;3.410270670428872E-003;2.483530202880502E-003;
2.401666666666667E+009;1.554657667875290E-001;8.258976042270660E-002;3.531955415382981E-003;2.478508278727531E-003;
2.401833333333334E+009;1.560045182704926E-001;7.974841445684433E-002;3.555299481377006E-003;2.450788160786033E-003;
2.402000000000000E+009;1.567498445510864E-001;7.684703171253204E-002;3.690529381856322E-003;2.383258892223239E-003;
2.402166666666667E+009;1.574700623750687E-001;7.448725402355194E-002;3.762119682505727E-003;2.471367130056024E-003;
2.402333333333334E+009;1.584231406450272E-001;7.136264443397522E-002;3.864003811031580E-003;2.423316473141313E-003;
2.402500000000000E+009;1.594823002815247E-001;6.873834133148193E-002;4.029241390526295E-003;2.249892801046372E-003;
2.402666666666667E+009;1.605780720710754E-001;6.652808934450150E-002;4.276034422218800E-003;2.266943920403719E-003;
2.402833333333334E+009;1.619350761175156E-001;6.389617919921875E-002;4.514999687671661E-003;2.066066488623619E-003;
2.403000000000000E+009;1.632605940103531E-001;6.150454655289650E-002;4.567187745124102E-003;1.881253789179027E-003;
2.403166666666667E+009;1.650137156248093E-001;5.916543304920197E-002;4.736234433948994E-003;1.789796398952603E-003;
2.403333333333334E+009;1.664341837167740E-001;5.678924173116684E-002;4.928069654852152E-003;1.456057885661721E-003;
2.403500000000000E+009;1.683305948972702E-001;5.475539341568947E-002;5.100897978991270E-003;1.179203973151743E-003;
2.403666666666667E+009;1.699660271406174E-001;5.257353559136391E-002;5.266133695840836E-003;8.474151836708188E-004;
2.403833333333334E+009;1.719904541969299E-001;5.079910531640053E-002;5.378443747758865E-003;6.907389615662396E-004;
2.404000000000000E+009;1.732788980007172E-001;4.876684769988060E-002;5.170435644686222E-003;3.794752992689610E-004;
2.404166666666667E+009;1.753392815589905E-001;4.726857319474220E-002;5.258181598037481E-003;-9.755086648510769E-005;
2.404333333333334E+009;1.769807487726212E-001;4.543983191251755E-002;5.109517369419336E-003;-1.441185158910230E-004;
2.404500000000000E+009;1.786896288394928E-001;4.408420249819756E-002;5.132955033332110E-003;-3.585556114558131E-004;
2.404666666666667E+009;1.805042326450348E-001;4.289064556360245E-002;4.923303611576557E-003;-5.935287917964160E-004;
2.404833333333334E+009;1.821139454841614E-001;4.169830307364464E-002;5.018749274313450E-003;-8.084929431788623E-004;
2.405000000000000E+009;1.835620105266571E-001;4.101018607616425E-002;4.933794494718313E-003;-1.188508467748761E-003;
2.405166666666667E+009;1.850288659334183E-001;4.014471545815468E-002;4.749143030494452E-003;-1.282986486330628E-003;
2.405333333333334E+009;1.867111921310425E-001;3.950731828808785E-002;4.815387073904276E-003;-1.608005957677960E-003;
2.405500000000000E+009;1.882988512516022E-001;3.907970711588860E-002;4.579187370836735E-003;-1.727259135805070E-003;
2.405666666666667E+009;1.895738095045090E-001;3.872956708073616E-002;4.355680663138628E-003;-1.747586531564593E-003;
2.405833333333334E+009;1.909146308898926E-001;3.852627426385880E-002;4.372862167656422E-003;-2.017010701820254E-003;
2.406000000000000E+009;1.921031475067139E-001;3.828696906566620E-002;4.406841471791267E-003;-2.044494496658444E-003;
2.406166666666667E+009;1.931517720222473E-001;3.810144960880280E-002;4.186062607914209E-003;-2.208694582805038E-003;
2.406333333333334E+009;1.942539513111115E-001;3.818345814943314E-002;4.144138656556606E-003;-2.344432752579451E-003;
2.406500000000000E+009;1.951299458742142E-001;3.830735385417938E-002;4.008132033050060E-003;-2.651250222697854E-003;
2.406666666666667E+009;1.960008889436722E-001;3.846956416964531E-002;3.804816631600261E-003;-2.611762611195445E-003;
2.406833333333334E+009;1.965506374835968E-001;3.850879892706871E-002;3.899984294548631E-003;-2.852789824828506E-003;
2.407000000000000E+009;1.969231516122818E-001;3.876523673534393E-002;3.792672650888562E-003;-3.003317862749100E-003;
2.407166666666667E+009;1.974530816078186E-001;3.869690746068955E-002;3.532910719513893E-003;-3.064977936446667E-003;
2.407333333333334E+009;1.975236833095551E-001;3.902538865804672E-002;3.316075541079044E-003;-3.258380573242903E-003;
2.407500000000000E+009;1.975834071636200E-001;3.920832276344299E-002;3.194700460880995E-003;-3.447063732892275E-003;
2.407666666666667E+009;1.976485997438431E-001;3.922946751117706E-002;3.075795713812113E-003;-3.377624554559588E-003;
2.407833333333334E+009;1.973859965801239E-001;3.923794999718666E-002;2.925911452621222E-003;-3.601248608902097E-003;
2.408000000000000E+009;1.973010450601578E-001;3.929154947400093E-002;2.812529681250453E-003;-3.642139025032520E-003;
2.408166666666667E+009;1.968388557434082E-001;3.940651193261147E-002;2.667434280738235E-003;-3.243587911128998E-003;
2.408333333333334E+009;1.962665021419525E-001;3.860376402735710E-002;1.781320432201028E-003;-3.857495728880167E-003;
2.408500000000000E+009;1.959014236927033E-001;3.878580406308174E-002;2.256580395624042E-003;-3.391641424968839E-003;
2.408666666666667E+009;1.953827738761902E-001;3.818865492939949E-002;1.986504066735506E-003;-3.732328070327640E-003;
2.408833333333334E+009;1.945943385362625E-001;3.777648136019707E-002;2.240442438051105E-003;-3.519763704389334E-003;
2.409000000000000E+009;1.934974640607834E-001;3.666440024971962E-002;1.651954837143421E-003;-3.998997155576944E-003;
2.409166666666667E+009;1.924946904182434E-001;3.591310232877731E-002;1.346948090940714E-003;-3.541814861819148E-003;
2.409333333333334E+009;1.917214691638947E-001;3.512293472886086E-002;1.450125477276743E-003;-3.498212434351444E-003;
2.409500000000000E+009;1.907074451446533E-001;3.410707414150238E-002;1.483235624618828E-003;-3.676302498206496E-003;
2.409666666666667E+009;1.895815134048462E-001;3.277165070176125E-002;1.509045716375113E-003;-3.478880506008863E-003;
2.409833333333334E+009;1.885456740856171E-001;3.108852170407772E-002;9.510244126431644E-004;-4.082627128809691E-003;
2.410000000000000E+009;1.873619258403778E-001;2.977804467082024E-002;1.011636108160019E-003;-3.869283013045788E-003;
2.410166666666667E+009;1.863011568784714E-001;2.806293964385986E-002;9.091878309845924E-004;-3.790552960708737E-003;
2.410333333333334E+009;1.853323280811310E-001;2.645674161612988E-002;8.689233800396323E-004;-3.685593605041504E-003;
2.410500000000000E+009;1.843249499797821E-001;2.442445047199726E-002;5.490660551004112E-004;-3.823947394266725E-003;
2.410666666666667E+009;1.833766102790833E-001;2.225582487881184E-002;4.716840048786253E-004;-3.819745965301991E-003;
2.410833333333334E+009;1.825871914625168E-001;2.007145062088966E-002;2.915545774158090E-004;-3.741056658327580E-003;
2.411000000000000E+009;1.817455440759659E-001;1.786237582564354E-002;2.401951933279634E-004;-3.781074658036232E-003;
2.411166666666667E+009;1.808513849973679E-001;1.583390124142170E-002;1.475767203373835E-004;-3.839593147858977E-003;
2.411333333333334E+009;1.805659979581833E-001;1.307688467204571E-002;-1.345393829979003E-004;-3.631326137110591E-003;
2.411500000000000E+009;1.797732710838318E-001;1.084387116134167E-002;-3.031843807548285E-004;-3.409550525248051E-003;
2.411666666666667E+009;1.794417202472687E-001;8.294154889881611E-003;-4.011336422991008E-004;-3.341767936944962E-003;
2.411833333333334E+009;1.790156811475754E-001;5.978577770292759E-003;-5.333733861334622E-004;-3.304383251816034E-003;
2.412000000000000E+009;1.791988611221314E-001;3.283308818936348E-003;-4.904610686935484E-004;-3.156638704240322E-003;
2.412166666666667E+009;1.790778338909149E-001;1.026950543746352E-003;-6.806909223087132E-004;-3.029448445886374E-003;
2.412333333333334E+009;1.792401075363159E-001;-1.744025154039264E-003;-6.662530940957367E-004;-2.939469413831830E-003;
2.412500000000000E+009;1.797036677598953E-001;-4.170369822531939E-003;-6.581275956705213E-004;-2.872565994039178E-003;
2.412666666666667E+009;1.798765361309052E-001;-6.704194005578756E-003;-6.164769292809069E-004;-2.607508329674602E-003;
2.412833333333334E+009;1.806932836771011E-001;-9.204589761793613E-003;-6.695284391753376E-004;-2.625656314194202E-003;
2.413000000000000E+009;1.814922094345093E-001;-1.160728372633457E-002;-6.457621930167079E-004;-2.549229655414820E-003;
2.413166666666667E+009;1.820518970489502E-001;-1.403053384274244E-002;-6.019264692440629E-004;-2.552992431446910E-003;
2.413333333333334E+009;1.831583827733994E-001;-1.640298962593079E-002;-5.117253167554736E-004;-2.689328510314226E-003;
2.413500000000000E+009;1.840348243713379E-001;-1.885352656245232E-002;-5.611933302134275E-004;-2.500305650755763E-003;
2.413666666666667E+009;1.850774586200714E-001;-2.111268043518066E-002;-6.138537428341806E-004;-2.591487253084779E-003;
2.413833333333334E+009;1.860271394252777E-001;-2.343900687992573E-002;-6.485256017185748E-004;-2.706129103899002E-003;
2.414000000000000E+009;1.873455047607422E-001;-2.537573501467705E-002;-7.457950268872082E-004;-2.773838816210628E-003;
2.414166666666667E+009;1.885627955198288E-001;-2.730253711342812E-002;-6.662287050858140E-004;-2.670497400686145E-003;
2.414333333333334E+009;1.896639466285706E-001;-2.929242327809334E-002;-8.073808276094496E-004;-2.842141548171639E-003;
2.414500000000000E+009;1.909128278493881E-001;-3.084029257297516E-002;-1.112039666622877E-003;-2.758246380835772E-003;
2.414666666666667E+009;1.921566426753998E-001;-3.268737345933914E-002;-1.041202573105693E-003;-2.731873420998454E-003;
2.414833333333334E+009;1.934711635112763E-001;-3.399807587265968E-002;-1.096102059818804E-003;-2.777264453470707E-003;
2.415000000000000E+009;1.944912821054459E-001;-3.541583567857742E-002;-1.302432850934565E-003;-2.605259884148836E-003;
2.415166666666667E+009;1.958400905132294E-001;-3.655384108424187E-002;-1.386092277243733E-003;-2.364870626479387E-003;
2.415333333333334E+009;1.971322149038315E-001;-3.755220398306847E-002;-1.432778546586633E-003;-2.475166460499167E-003;
2.415500000000000E+009;1.982693076133728E-001;-3.823034465312958E-002;-1.503044855780900E-003;-2.465469995513558E-003;
2.415666666666667E+009;1.993901878595352E-001;-3.931394964456558E-002;-1.482910593040288E-003;-2.133806236088276E-003;
2.415833333333334E+009;2.003594487905502E-001;-3.989622369408608E-002;-1.506038592197001E-003;-2.240699715912342E-003;
2.416000000000000E+009;2.012913227081299E-001;-4.044812172651291E-002;-1.442032633349299E-003;-2.256976673379540E-003;
2.416166666666667E+009;2.022138833999634E-001;-4.110835120081902E-002;-1.506394124589860E-003;-2.134785521775484E-003;
2.416333333333334E+009;2.028681039810181E-001;-4.126713424921036E-002;-1.460460480302572E-003;-1.957929460331798E-003;
2.416500000000000E+009;2.034708112478256E-001;-4.158100485801697E-002;-1.426897710189223E-003;-2.058341866359115E-003;
2.416666666666667E+009;2.038738727569580E-001;-4.198191687464714E-002;-1.303341472521424E-003;-2.096243901178241E-003;
2.416833333333334E+009;2.041643261909485E-001;-4.203135147690773E-002;-1.492980285547674E-003;-2.225601347163320E-003;
2.417000000000000E+009;2.045151293277741E-001;-4.199325665831566E-002;-1.515644951723516E-003;-2.224169671535492E-003;
2.417166666666667E+009;2.042438536882401E-001;-4.202309623360634E-002;-1.467034802772105E-003;-2.267776755616069E-003;
2.417333333333334E+009;2.042121440172195E-001;-4.181996360421181E-002;-1.441661617718637E-003;-2.435240428894758E-003;
2.417500000000000E+009;2.040513455867767E-001;-4.172814264893532E-002;-1.613780274055898E-003;-2.383663319051266E-003;
2.417666666666667E+009;2.036350518465042E-001;-4.147280007600784E-002;-1.673441380262375E-003;-2.686804626137018E-003;
2.417833333333334E+009;2.032455354928970E-001;-4.124301299452782E-002;-1.855243230238557E-003;-2.596521517261863E-003;
2.418000000000000E+009;2.025923132896423E-001;-4.087247326970100E-002;-2.008597133681178E-003;-2.673541661351919E-003;
2.418166666666667E+009;2.018435299396515E-001;-4.079667851328850E-002;-2.059364924207330E-003;-2.718260278925300E-003;
2.418333333333334E+009;2.009927183389664E-001;-4.048394411802292E-002;-2.378500765189529E-003;-2.663062419742346E-003;
2.418500000000000E+009;2.001337707042694E-001;-4.054314643144608E-002;-2.497171051800251E-003;-2.594205550849438E-003;
2.418666666666667E+009;1.990517675876617E-001;-4.027970880270004E-002;-2.827826654538512E-003;-2.562559675425291E-003;
2.418833333333334E+009;1.978943049907684E-001;-4.044922813773155E-002;-3.068438498303294E-003;-2.259082859382033E-003;
2.419000000000000E+009;1.966035813093185E-001;-4.043918475508690E-002;-3.166374750435352E-003;-2.230392303317785E-003;
2.419166666666667E+009;1.952605396509171E-001;-4.069709777832031E-002;-3.201610874384642E-003;-2.030479488894343E-003;
2.419333333333334E+009;1.938491761684418E-001;-4.104384407401085E-002;-3.308490850031376E-003;-1.872870256192982E-003;
2.419500000000000E+009;1.924318671226502E-001;-4.139554500579834E-002;-3.426665207371116E-003;-1.583436154760420E-003;
2.419666666666667E+009;1.908716857433319E-001;-4.198484495282173E-002;-3.553322516381741E-003;-1.306707388721407E-003;
2.419833333333334E+009;1.890639960765839E-001;-4.260086268186569E-002;-3.623794065788388E-003;-1.217384240590036E-003;
2.420000000000000E+009;1.875193864107132E-001;-4.350426048040390E-002;-3.538667922839522E-003;-1.203296007588506E-003;
2.420166666666667E+009;1.858810037374497E-001;-4.443980753421783E-002;-3.501615021377802E-003;-1.016232301481068E-003;
2.420333333333334E+009;1.842461228370667E-001;-4.553136974573135E-002;-3.581839380785823E-003;-8.158438722603023E-004;
2.420500000000000E+009;1.824471205472946E-001;-4.675771296024323E-002;-3.588033141568303E-003;-8.147649932652712E-004;
2.420666666666667E+009;1.808793544769287E-001;-4.780498519539833E-002;-3.633317071944475E-003;-6.815049564465880E-004;
2.420833333333334E+009;1.788296699523926E-001;-4.950694367289543E-002;-3.588437801226974E-003;-5.237000295892358E-004;
2.421000000000000E+009;1.772790253162384E-001;-5.089784413576126E-002;-3.706869203597307E-003;-4.769959778059274E-004;
2.421166666666667E+009;1.758879721164703E-001;-5.255214869976044E-002;-3.660980379208922E-003;-3.881927696056664E-004;
2.421333333333334E+009;1.740833818912506E-001;-5.410739034414291E-002;-3.713862039148808E-003;-9.539613529341295E-005;
2.421500000000000E+009;1.728467494249344E-001;-5.603046342730522E-002;-3.700301516801119E-003;-3.427034607739188E-005;
2.421666666666667E+009;1.715401113033295E-001;-5.794048309326172E-002;-3.654621308669448E-003;1.794678100850433E-004;
2.421833333333334E+009;1.702556014060974E-001;-5.971356108784676E-002;-3.726832102984190E-003;2.748653059825301E-004;
2.422000000000000E+009;1.688926964998245E-001;-6.176921352744103E-002;-3.746118396520615E-003;4.678151162806898E-004;
2.422166666666667E+009;1.678741723299027E-001;-6.376842409372330E-002;-3.640847047790885E-003;5.826698616147041E-004;
2.422333333333334E+009;1.668378263711929E-001;-6.591095030307770E-002;-3.722627880051732E-003;7.655159570276737E-004;
2.422500000000000E+009;1.659830808639526E-001;-6.787226349115372E-002;-3.589266212657094E-003;9.704994736239314E-004;
2.422666666666667E+009;1.653207689523697E-001;-7.004072517156601E-002;-3.685519332066178E-003;1.199138117954135E-003;
2.422833333333334E+009;1.647331118583679E-001;-7.221394777297974E-002;-3.410255303606391E-003;1.260815421119332E-003;
2.423000000000000E+009;1.641975045204163E-001;-7.442320883274078E-002;-3.206822322681546E-003;1.493680523708463E-003;
2.423166666666667E+009;1.636790782213211E-001;-7.628494501113892E-002;-3.198914928361774E-003;1.553022651933134E-003;
2.423333333333334E+009;1.636247187852860E-001;-7.845377922058106E-002;-3.145598573610187E-003;1.775847864337266E-003;
2.423500000000000E+009;1.633638441562653E-001;-8.036880195140839E-002;-2.880635438486934E-003;1.780931372195482E-003;
2.423666666666667E+009;1.634283214807510E-001;-8.253912627696991E-002;-2.805511932820082E-003;1.794843585230410E-003;
2.423833333333334E+009;1.632664650678635E-001;-8.432457596063614E-002;-2.740438561886549E-003;2.074389718472958E-003;
2.424000000000000E+009;1.634549200534821E-001;-8.623021841049194E-002;-2.497003180906177E-003;2.069495385512710E-003;
2.424166666666667E+009;1.635397672653198E-001;-8.789502084255219E-002;-2.501740120351315E-003;2.001685556024313E-003;
2.424333333333334E+009;1.639903336763382E-001;-8.972990512847900E-002;-2.377416007220745E-003;2.161302138119936E-003;
2.424500000000000E+009;1.643361449241638E-001;-9.149122238159180E-002;-2.303994493559003E-003;2.166519640013576E-003;
2.424666666666667E+009;1.645475924015045E-001;-9.310334920883179E-002;-2.207745099440217E-003;2.241776557639241E-003;
2.424833333333334E+009;1.651882380247116E-001;-9.440484642982483E-002;-2.051935065537691E-003;2.146345330402255E-003;
2.425000000000000E+009;1.655617654323578E-001;-9.575263410806656E-002;-1.885682344436646E-003;2.276560990139842E-003;
2.425166666666667E+009;1.659503281116486E-001;-9.691802412271500E-002;-1.844659796915948E-003;2.430067397654057E-003;
2.425333333333334E+009;1.664903908967972E-001;-9.795008599758148E-002;-1.833510934375227E-003;2.285567810758948E-003;
2.425500000000000E+009;1.668703109025955E-001;-9.914108365774155E-002;-1.551248948089778E-003;2.310388255864382E-003;
2.425666666666667E+009;1.674513220787048E-001;-9.983312338590622E-002;-1.427250332199037E-003;2.276156330481172E-003;
2.425833333333334E+009;1.678793132305145E-001;-1.008439138531685E-001;-1.357137924060226E-003;2.226422308012843E-003;
2.426000000000000E+009;1.684224307537079E-001;-1.012832671403885E-001;-1.162208034656942E-003;2.387928543612361E-003;
2.426166666666667E+009;1.690250784158707E-001;-1.017323434352875E-001;-1.175988814793527E-003;2.252565464004874E-003;
2.426333333333334E+009;1.691591292619705E-001;-1.024100407958031E-001;-1.119908411055803E-003;2.252902602776885E-003;
2.426500000000000E+009;1.697089821100235E-001;-1.026991531252861E-001;-9.868912165984511E-004;2.167914994060993E-003;
2.426666666666667E+009;1.701254993677139E-001;-1.030721142888069E-001;-9.325420833192766E-004;2.135967370122671E-003;
2.426833333333334E+009;1.704529672861099E-001;-1.033947914838791E-001;-8.710219408385456E-004;2.043871907517314E-003;
2.427000000000000E+009;1.706025898456574E-001;-1.035303771495819E-001;-8.916316437534988E-004;2.058165380731225E-003;
2.427166666666667E+009;1.707028150558472E-001;-1.036943420767784E-001;-8.674901910126209E-004;2.080944133922458E-003;
2.427333333333334E+009;1.707847565412521E-001;-1.039803847670555E-001;-6.992898997850716E-004;2.086275024339557E-003;
2.427500000000000E+009;1.706931889057159E-001;-1.039260998368263E-001;-6.706570857204497E-004;1.953145954757929E-003;
2.427666666666667E+009;1.705534756183624E-001;-1.039992198348045E-001;-6.186593673191965E-004;1.894313609227538E-003;
