# Version 1.00
#
freq[Hz];re:Trc1_S11;im:Trc1_S11;re:Trc2_S21;im:Trc2_S21;
2.400000000000000E+009;1.549499630928040E-001;1.091197058558464E-001;2.862341469153762E-003;3.641481511294842E-003;
2.400166666666667E+009;1.546209901571274E-001;1.067645624279976E-001;3.072956111282110E-003;3.425814444199204E-003;
2.400333333333334E+009;1.544649004936218E-001;1.044842079281807E-001;3.101119771599770E-003;3.268336877226830E-003;
2.400500000000000E+009;1.545227766036987E-001;1.018623635172844E-001;3.243971383199096E-003;3.196758683770895E-003;
2.400666666666667E+009;1.542291790246964E-001;9.940844029188156E-002;3.244506195187569E-003;3.051810665056109E-003;
2.400833333333334E+009;1.541668474674225E-001;9.658621996641159E-002;3.387390635907650E-003;2.965223509818316E-003;
2.401000000000000E+009;1.543712913990021E-001;9.383538365364075E-002;3.425948787480593E-003;2.815952990204096E-003;
2.401166666666667E+009;1.542906016111374E-001;9.103574603796005E-002;3.405752591788769E-003;2.752971835434437E-003;
2.401333333333334E+009;1.547750532627106E-001;8.825314044952393E-002;3.382079768925905E-003;2.721241442486644E-003;
2.401500000000000E+009;1.550408452749252E-001;8.533853292465210E-002;3.344262018799782E-003;2.804220654070377E-003;
2.401666666666667E+009;1.552360355854034E-001;8.234978467226028E-002;3.502328414469957E-003;2.516542328521609E-003;
2.401833333333334E+009;1.556499451398850E-001;7.950056344270706E-002;3.627174533903599E-003;2.588582690805197E-003;
2.402000000000000E+009;1.565081179141998E-001;7.687810063362122E-002;3.720751265063882E-003;2.409940585494041E-003;
2.402166666666667E+009;1.572670936584473E-001;7.429035007953644E-002;3.761130385100842E-003;2.371776616200805E-003;
2.402333333333334E+009;1.580618023872376E-001;7.138328999280930E-002;3.986828029155731E-003;2.401672769337893E-003;
2.402500000000000E+009;1.591919511556625E-001;6.881693750619888E-002;4.104435909539461E-003;2.350482158362865E-003;
2.402666666666667E+009;1.604173481464386E-001;6.642835587263107E-002;4.317363724112511E-003;2.158387796953321E-003;
2.402833333333334E+009;1.618113815784454E-001;6.369238346815109E-002;4.484116099774838E-003;1.931470236741006E-003;
2.403000000000000E+009;1.631457805633545E-001;6.137851253151894E-002;4.645391833037138E-003;1.958894077688456E-003;
2.403166666666667E+009;1.648373752832413E-001;5.893408507108688E-002;4.912864882498980E-003;1.760675804689527E-003;
2.403333333333334E+009;1.662816852331162E-001;5.668554082512856E-002;4.922987427562475E-003;1.385815674439073E-003;
2.403500000000000E+009;1.679935306310654E-001;5.465852096676827E-002;5.148070398718119E-003;1.284657861106098E-003;
2.403666666666667E+009;1.699370890855789E-001;5.257093533873558E-002;5.202847067266703E-003;7.528169080615044E-004;
2.403833333333334E+009;1.716358959674835E-001;5.061089992523193E-002;5.266829859465361E-003;4.602165136020631E-004;
2.404000000000000E+009;1.731723397970200E-001;4.878186434507370E-002;5.240919068455696E-003;3.844076418317854E-004;
2.404166666666667E+009;1.749659776687622E-001;4.701203480362892E-002;5.295602604746819E-003;3.788693356909789E-005;
2.404333333333334E+009;1.767616271972656E-001;4.558837041258812E-002;5.217595957219601E-003;-2.326379908481613E-004;
2.404500000000000E+009;1.783071756362915E-001;4.399774968624115E-002;5.236649885773659E-003;-4.619170504156500E-004;
2.404666666666667E+009;1.803025156259537E-001;4.277030751109123E-002;5.067752674221993E-003;-6.662690429948270E-004;
2.404833333333334E+009;1.819643974304199E-001;4.153066501021385E-002;4.883803427219391E-003;-8.757289033383131E-004;
2.405000000000000E+009;1.834106445312500E-001;4.085610434412956E-002;4.991565365344286E-003;-1.036692643538117E-003;
2.405166666666667E+009;1.849474161863327E-001;4.000462591648102E-002;4.873079713433981E-003;-1.275975722819567E-003;
2.405333333333334E+009;1.865289956331253E-001;3.961773961782455E-002;4.633918870240450E-003;-1.445457572117448E-003;
2.405500000000000E+009;1.879224032163620E-001;3.901829198002815E-002;4.595565143972635E-003;-1.466333284042776E-003;
2.405666666666667E+009;1.893703341484070E-001;3.882038965821266E-002;4.472176544368267E-003;-1.759440521709621E-003;
2.405833333333334E+009;1.907110214233398E-001;3.846289962530136E-002;4.421910736709833E-003;-1.936184708029032E-003;
2.406000000000000E+009;1.918022632598877E-001;3.831198439002037E-002;4.263575188815594E-003;-2.095744013786316E-003;
2.406166666666667E+009;1.928579509258270E-001;3.827956318855286E-002;4.146901424974203E-003;-2.209173981100321E-003;
2.406333333333334E+009;1.939813494682312E-001;3.837661817669869E-002;3.942909184843302E-003;-2.428220584988594E-003;
2.406500000000000E+009;1.948505640029907E-001;3.836623579263687E-002;4.053440876305103E-003;-2.627698471769691E-003;
2.406666666666667E+009;1.955852806568146E-001;3.857964649796486E-002;3.926668781787157E-003;-2.539141336455941E-003;
2.406833333333334E+009;1.962299644947052E-001;3.864555433392525E-002;3.812358481809497E-003;-2.955005504190922E-003;
2.407000000000000E+009;1.966195851564407E-001;3.907700255513191E-002;3.684007097035646E-003;-2.815913874655962E-003;
2.407166666666667E+009;1.971942633390427E-001;3.898163139820099E-002;3.487493377178907E-003;-2.971623558551073E-003;
2.407333333333334E+009;1.971653252840042E-001;3.919385746121407E-002;3.285994753241539E-003;-3.197780577465892E-003;
2.407500000000000E+009;1.973501890897751E-001;3.945418447256088E-002;3.233611350879073E-003;-3.530905582010746E-003;
2.407666666666667E+009;1.974729448556900E-001;3.943746909499168E-002;2.916888333857060E-003;-3.467126050963998E-003;
2.407833333333334E+009;1.970935612916946E-001;3.944574669003487E-002;2.894035773351789E-003;-3.413936588913202E-003;
2.408000000000000E+009;1.971880346536636E-001;3.946603089570999E-002;2.712787361815572E-003;-3.602247452363372E-003;
2.408166666666667E+009;1.965945810079575E-001;3.926420956850052E-002;2.591680735349655E-003;-3.654548199847341E-003;
2.408333333333334E+009;1.962670832872391E-001;3.903542831540108E-002;2.389790024608374E-003;-3.638557158410549E-003;
2.408500000000000E+009;1.956263631582260E-001;3.882487118244171E-002;2.132763620465994E-003;-3.631461877375841E-003;
2.408666666666667E+009;1.949999034404755E-001;3.840727359056473E-002;2.100667683407664E-003;-3.663181560114026E-003;
2.408833333333334E+009;1.943631321191788E-001;3.792448341846466E-002;1.928076380863786E-003;-3.604111960157752E-003;
2.409000000000000E+009;1.933027803897858E-001;3.702296689152718E-002;1.743559143505991E-003;-3.672669641673565E-003;
2.409166666666667E+009;1.924233734607697E-001;3.622679039835930E-002;1.560157281346619E-003;-3.727912902832031E-003;
2.409333333333334E+009;1.916380673646927E-001;3.547659143805504E-002;1.640466856770217E-003;-3.684496041387320E-003;
2.409500000000000E+009;1.902662664651871E-001;3.410211205482483E-002;1.416859449818730E-003;-3.677760949358344E-003;
2.409666666666667E+009;1.893962323665619E-001;3.274842351675034E-002;1.235497766174376E-003;-3.730098716914654E-003;
2.409833333333334E+009;1.883626580238342E-001;3.145761787891388E-002;1.165828900411725E-003;-3.646600292995572E-003;
2.410000000000000E+009;1.873737424612045E-001;3.006800636649132E-002;1.262366888113320E-003;-3.774844110012054E-003;
2.410166666666667E+009;1.861650198698044E-001;2.825395204126835E-002;9.423290030099452E-004;-3.770925337448716E-003;
2.410333333333334E+009;1.851589232683182E-001;2.652385830879211E-002;7.876399322412908E-004;-3.807180793955922E-003;
2.410500000000000E+009;1.840550005435944E-001;2.473380975425243E-002;6.155892624519765E-004;-3.796622622758150E-003;
2.410666666666667E+009;1.831146031618118E-001;2.241045609116554E-002;5.913861677981913E-004;-3.894988680258393E-003;
2.410833333333334E+009;1.823673397302628E-001;2.029104158282280E-002;4.353717376943678E-004;-3.792472183704376E-003;
2.411000000000000E+009;1.814294159412384E-001;1.812020130455494E-002;2.361681836191565E-004;-3.811809699982405E-003;
2.411166666666667E+009;1.807849407196045E-001;1.579356379806995E-002;-1.173393466160633E-004;-3.680146299302578E-003;
2.411333333333334E+009;1.801091879606247E-001;1.338767167180777E-002;4.405436266097240E-005;-3.566401777788997E-003;
2.411500000000000E+009;1.795976608991623E-001;1.103019993752241E-002;-2.124661550624296E-004;-3.593080211430788E-003;
2.411666666666667E+009;1.791962683200836E-001;8.570729754865170E-003;-3.732288896571845E-004;-3.531799651682377E-003;
2.411833333333334E+009;1.790295690298080E-001;6.239657755941153E-003;-5.343208322301507E-004;-3.238868433982134E-003;
2.412000000000000E+009;1.789136230945587E-001;3.731368575245142E-003;-5.560517893172801E-004;-3.261937759816647E-003;
2.412166666666667E+009;1.790171265602112E-001;1.213875832036138E-003;-6.494991248473525E-004;-3.028533887118101E-003;
2.412333333333334E+009;1.791230738162994E-001;-1.370755839161575E-003;-5.847262218594551E-004;-2.941132988780737E-003;
2.412500000000000E+009;1.795279979705811E-001;-3.924567718058825E-003;-7.502053049392998E-004;-2.758891787379980E-003;
2.412666666666667E+009;1.799263805150986E-001;-6.420108489692211E-003;-4.046897229272872E-004;-2.803995972499251E-003;
2.412833333333334E+009;1.805894672870636E-001;-8.986759930849075E-003;-7.576086791232228E-004;-2.684972947463393E-003;
2.413000000000000E+009;1.812723428010941E-001;-1.153464149683714E-002;-5.365455872379243E-004;-2.569001400843263E-003;
2.413166666666667E+009;1.819866746664047E-001;-1.384471822530031E-002;-5.614954861812294E-004;-2.649667905643582E-003;
2.413333333333334E+009;1.830751448869705E-001;-1.630362495779991E-002;-5.402400274761021E-004;-2.637893659994006E-003;
2.413500000000000E+009;1.840543001890183E-001;-1.867337897419930E-002;-5.406487616710365E-004;-2.662500366568565E-003;
2.413666666666667E+009;1.851127445697784E-001;-2.103317156434059E-002;-5.066750454716384E-004;-2.604927634820342E-003;
2.413833333333334E+009;1.861427575349808E-001;-2.312994189560413E-002;-5.528021720238030E-004;-2.746524754911661E-003;
2.414000000000000E+009;1.872808337211609E-001;-2.509718760848045E-002;-6.195827154442668E-004;-2.847315277904272E-003;
2.414166666666667E+009;1.886075288057327E-001;-2.699710242450237E-002;-8.178660064004362E-004;-2.763566328212619E-003;
2.414333333333334E+009;1.896849572658539E-001;-2.921359427273274E-002;-8.872571634128690E-004;-2.651099348440766E-003;
2.414500000000000E+009;1.910892874002457E-001;-3.074762038886547E-002;-8.654427947476506E-004;-2.794768428429961E-003;
2.414666666666667E+009;1.921625882387161E-001;-3.241303190588951E-002;-1.087647164240480E-003;-2.668846631422639E-003;
2.414833333333334E+009;1.935025751590729E-001;-3.376120701432228E-002;-1.188600319437683E-003;-2.627603476867080E-003;
2.415000000000000E+009;1.947627365589142E-001;-3.529878333210945E-002;-1.324313692748547E-003;-2.569178352132440E-003;
2.415166666666667E+009;1.958893686532974E-001;-3.626654669642448E-002;-1.314702793024480E-003;-2.557173836976290E-003;
2.415333333333334E+009;1.972330510616303E-001;-3.731401637196541E-002;-1.321982708759606E-003;-2.562047215178609E-003;
2.415500000000000E+009;1.984194517135620E-001;-3.810390084981918E-002;-1.447206130251288E-003;-2.397556556388736E-003;
2.415666666666667E+009;1.995038837194443E-001;-3.903084620833397E-002;-1.470885123126209E-003;-2.277040621265769E-003;
2.415833333333334E+009;2.005181312561035E-001;-3.964196518063545E-002;-1.579605625011027E-003;-2.231644699349999E-003;
2.416000000000000E+009;2.014144062995911E-001;-4.033494368195534E-002;-1.375685795210302E-003;-2.157827140763402E-003;
2.416166666666667E+009;2.020877897739410E-001;-4.094645753502846E-002;-1.480887993238866E-003;-2.258888212963939E-003;
2.416333333333334E+009;2.029393613338471E-001;-4.112745076417923E-002;-1.523542334325612E-003;-2.241696696728468E-003;
2.416500000000000E+009;2.034847736358643E-001;-4.144566506147385E-002;-1.489010523073375E-003;-2.068756381049752E-003;
2.416666666666667E+009;2.038971185684204E-001;-4.179830476641655E-002;-1.369026605971158E-003;-2.114924369379878E-003;
2.416833333333334E+009;2.042085230350494E-001;-4.171688854694367E-002;-1.367088523693383E-003;-2.304113237187266E-003;
2.417000000000000E+009;2.045179009437561E-001;-4.183924570679665E-002;-1.482772640883923E-003;-2.316603437066078E-003;
2.417166666666667E+009;2.044375389814377E-001;-4.174181446433067E-002;-1.547248451970518E-003;-2.279802458360791E-003;
2.417333333333334E+009;2.041624635457993E-001;-4.156148433685303E-002;-1.487511442974210E-003;-2.509075216948986E-003;
2.417500000000000E+009;2.040652036666870E-001;-4.152653738856316E-002;-1.633608480915427E-003;-2.562470734119415E-003;
2.417666666666667E+009;2.036660313606262E-001;-4.122998192906380E-002;-1.806978019885719E-003;-2.492103027179837E-003;
2.417833333333334E+009;2.033256292343140E-001;-4.101309925317764E-002;-1.927746925503016E-003;-2.520047826692462E-003;
2.418000000000000E+009;2.027224153280258E-001;-4.066912457346916E-002;-2.152007305994630E-003;-2.477958099916577E-003;
2.418166666666667E+009;2.019729763269424E-001;-4.053589701652527E-002;-2.285193884745240E-003;-2.673094160854816E-003;
2.418333333333334E+009;2.011283785104752E-001;-4.031629487872124E-002;-2.475414192304015E-003;-2.559136832132936E-003;
2.418500000000000E+009;2.001556903123856E-001;-4.024912789463997E-002;-2.592165488749743E-003;-2.493159379810095E-003;
2.418666666666667E+009;1.993293464183807E-001;-4.001146927475929E-002;-2.645006868988276E-003;-2.542030066251755E-003;
2.418833333333334E+009;1.980950534343720E-001;-4.020946845412254E-002;-3.051107749342918E-003;-2.381645608693361E-003;
2.419000000000000E+009;1.968618780374527E-001;-4.036153480410576E-002;-3.301826305687428E-003;-2.226418349891901E-003;
2.419166666666667E+009;1.955627351999283E-001;-4.050379246473312E-002;-3.367215162143111E-003;-2.019521314650774E-003;
2.419333333333334E+009;1.940849274396896E-001;-4.094607010483742E-002;-3.513130126520991E-003;-1.795159070752561E-003;
2.419500000000000E+009;1.926097869873047E-001;-4.122503846883774E-002;-3.525045467540622E-003;-1.820944831706584E-003;
2.419666666666667E+009;1.909331083297730E-001;-4.180605709552765E-002;-3.643058473244309E-003;-1.417761552147567E-003;
2.419833333333334E+009;1.892579495906830E-001;-4.247390106320381E-002;-3.697951557114720E-003;-1.445104251615703E-003;
2.420000000000000E+009;1.876458227634430E-001;-4.344474151730537E-002;-3.654981032013893E-003;-1.056825974956155E-003;
2.420166666666667E+009;1.860378682613373E-001;-4.420066624879837E-002;-3.696414176374674E-003;-1.095230923965573E-003;
2.420333333333334E+009;1.843233257532120E-001;-4.528037458658218E-002;-3.558414755389094E-003;-9.633827721700072E-004;
2.420500000000000E+009;1.826559156179428E-001;-4.654523357748985E-002;-3.698598127812147E-003;-7.287944899871945E-004;
2.420666666666667E+009;1.808208078145981E-001;-4.783749952912331E-002;-3.666057484224439E-003;-6.815100787207484E-004;
2.420833333333334E+009;1.791130155324936E-001;-4.916552826762199E-002;-3.695597639307380E-003;-4.902653163298965E-004;
2.421000000000000E+009;1.776269525289536E-001;-5.060287564992905E-002;-3.738683182746172E-003;-4.272713849786669E-004;
2.421166666666667E+009;1.762641221284866E-001;-5.228972434997559E-002;-3.714973805472255E-003;-2.979453129228205E-004;
2.421333333333334E+009;1.744166463613510E-001;-5.403101816773415E-002;-3.707748837769032E-003;-2.206537901656702E-004;
2.421500000000000E+009;1.729256063699722E-001;-5.579686909914017E-002;-3.728862386196852E-003;3.440840009716339E-005;
2.421666666666667E+009;1.717567145824432E-001;-5.792478844523430E-002;-3.698926884680986E-003;1.291361404582858E-004;
2.421833333333334E+009;1.703788638114929E-001;-5.953129008412361E-002;-3.754372010007501E-003;2.739140763878822E-004;
2.422000000000000E+009;1.690660864114761E-001;-6.152745336294174E-002;-3.695489140227437E-003;3.532884584274143E-004;
2.422166666666667E+009;1.682463139295578E-001;-6.363891810178757E-002;-3.926844801753759E-003;5.877707153558731E-004;
2.422333333333334E+009;1.670259833335877E-001;-6.578800082206726E-002;-3.589500905945897E-003;7.071963045746088E-004;
2.422500000000000E+009;1.661903560161591E-001;-6.770061701536179E-002;-3.634585533291102E-003;9.111760882660747E-004;
2.422666666666667E+009;1.654102802276611E-001;-6.998163461685181E-002;-3.438359126448631E-003;1.081514754332602E-003;
2.422833333333334E+009;1.649379283189774E-001;-7.201936095952988E-002;-3.453667974099517E-003;1.228392007760704E-003;
2.423000000000000E+009;1.643404811620712E-001;-7.428321242332459E-002;-3.365155076608062E-003;1.381015870720148E-003;
2.423166666666667E+009;1.639153659343720E-001;-7.627215236425400E-002;-3.405604511499405E-003;1.568693085573614E-003;
2.423333333333334E+009;1.636973023414612E-001;-7.856299728155136E-002;-3.062194678932428E-003;1.721831969916821E-003;
2.423500000000000E+009;1.636532694101334E-001;-8.033908903598785E-002;-2.990817883983254E-003;1.741891144774854E-003;
2.423666666666667E+009;1.636392474174500E-001;-8.249147981405258E-002;-2.844185568392277E-003;1.980743138119578E-003;
2.423833333333334E+009;1.635948270559311E-001;-8.434030413627625E-002;-2.608999842777848E-003;1.913269632495940E-003;
2.424000000000000E+009;1.635896414518356E-001;-8.619485050439835E-002;-2.662645885720849E-003;1.951421843841672E-003;
2.424166666666667E+009;1.637337952852249E-001;-8.805429190397263E-002;-2.627978567034006E-003;2.160000149160624E-003;
2.424333333333334E+009;1.639835387468338E-001;-8.959468454122543E-002;-2.315402030944824E-003;2.300872001796961E-003;
2.424500000000000E+009;1.644972562789917E-001;-9.139971435070038E-002;-2.290330128744245E-003;2.188525628298521E-003;
2.424666666666667E+009;1.647797822952271E-001;-9.296529740095139E-002;-2.201127819716930E-003;2.251083962619305E-003;
2.424833333333334E+009;1.654150933027268E-001;-9.439512342214584E-002;-2.080353908240795E-003;2.266926458105445E-003;
2.425000000000000E+009;1.657951772212982E-001;-9.580802917480469E-002;-1.701884786598384E-003;2.447767416015267E-003;
2.425166666666667E+009;1.661248356103897E-001;-9.692315757274628E-002;-1.739539206027985E-003;2.404282568022609E-003;
2.425333333333334E+009;1.666073501110077E-001;-9.803000837564468E-002;-1.526356791146100E-003;2.398884389549494E-003;
2.425500000000000E+009;1.671453267335892E-001;-9.924345463514328E-002;-1.489580725319684E-003;2.369293477386236E-003;
2.425666666666667E+009;1.676698625087738E-001;-9.985683858394623E-002;-1.452428521588445E-003;2.437737537547946E-003;
2.425833333333334E+009;1.680532544851303E-001;-1.008191853761673E-001;-1.477387151680887E-003;2.440792275592685E-003;
2.426000000000000E+009;1.685258150100708E-001;-1.013183444738388E-001;-1.363826217129827E-003;2.533432794734836E-003;
2.426166666666667E+009;1.691941022872925E-001;-1.018764749169350E-001;-1.135729253292084E-003;2.429810352623463E-003;
2.426333333333334E+009;1.693408638238907E-001;-1.025055944919586E-001;-1.060838578268886E-003;2.263208385556936E-003;
2.426500000000000E+009;1.698578596115112E-001;-1.028116345405579E-001;-8.931903284974396E-004;2.201870549470186E-003;
2.426666666666667E+009;1.702236235141754E-001;-1.030184850096703E-001;-9.142990456894040E-004;2.205172087997198E-003;
2.426833333333334E+009;1.706019192934036E-001;-1.033563464879990E-001;-8.908380987122655E-004;2.047252375632525E-003;
2.427000000000000E+009;1.706999540328980E-001;-1.036205142736435E-001;-7.702126167714596E-004;2.183776348829269E-003;
2.427166666666667E+009;1.709871292114258E-001;-1.036572828888893E-001;-5.897424416616559E-004;2.186996862292290E-003;
2.427333333333334E+009;1.710204482078552E-001;-1.038761809468269E-001;-7.079793722368777E-004;2.046994166448712E-003;
2.427500000000000E+009;1.708590090274811E-001;-1.039752587676048E-001;-5.061544361524284E-004;2.024808200076222E-003;
2.427666666666667E+009;1.707076281309128E-001;-1.040440946817398E-001;-5.293372087180615E-004;1.864375662989914E-003;
