# Version 1.00
#
freq[Hz];re:Trc1_S11;im:Trc1_S11;re:Trc2_S21;im:Trc2_S21;
2.400000000000000E+009;1.551834642887116E-001;1.091391220688820E-001;2.921330975368619E-003;3.556096227839589E-003;
2.400166666666667E+009;1.547175496816635E-001;1.068232655525208E-001;3.018697956576943E-003;3.600571071729064E-003;
2.400333333333334E+009;1.546397060155869E-001;1.046245843172073E-001;3.084995318204165E-003;3.291207598522306E-003;
2.400500000000000E+009;1.545295566320419E-001;1.018830090761185E-001;3.236844204366207E-003;3.168829949572682E-003;
2.400666666666667E+009;1.545801907777786E-001;9.945381432771683E-002;3.350072074681521E-003;2.984530758112669E-003;
2.400833333333334E+009;1.544487327337265E-001;9.677527099847794E-002;3.273379523307085E-003;2.900604624301195E-003;
2.401000000000000E+009;1.545292735099793E-001;9.382905066013336E-002;3.354817396029830E-003;2.794196363538504E-003;
2.401166666666667E+009;1.543083339929581E-001;9.098891913890839E-002;3.348562167957425E-003;2.853063866496086E-003;
2.401333333333334E+009;1.547835320234299E-001;8.817721158266068E-002;3.420002525672317E-003;2.718189964070916E-003;
2.401500000000000E+009;1.548970043659210E-001;8.522500097751617E-002;3.524408908560872E-003;2.521832007914782E-003;
2.401666666666667E+009;1.553130447864533E-001;8.246677368879318E-002;3.605118021368980E-003;2.418903401121497E-003;
2.401833333333334E+009;1.557328402996063E-001;7.964447140693665E-002;3.557112067937851E-003;2.456589369103313E-003;
2.402000000000000E+009;1.565729081630707E-001;7.697135955095291E-002;3.730497788637877E-003;2.483721589669585E-003;
2.402166666666667E+009;1.573345363140106E-001;7.428530603647232E-002;3.789457492530346E-003;2.322607440873981E-003;
2.402333333333334E+009;1.580500006675720E-001;7.144720852375031E-002;3.736050333827734E-003;2.461736788973212E-003;
2.402500000000000E+009;1.592280715703964E-001;6.873952597379684E-002;4.253617022186518E-003;2.309534000232816E-003;
2.402666666666667E+009;1.603127121925354E-001;6.634934991598129E-002;4.239391535520554E-003;2.256033942103386E-003;
2.402833333333334E+009;1.617403179407120E-001;6.385276466608048E-002;4.428175278007984E-003;2.168995561078191E-003;
2.403000000000000E+009;1.629155874252319E-001;6.145317107439041E-002;4.695824813097715E-003;1.899239141494036E-003;
2.403166666666667E+009;1.646337807178497E-001;5.922879651188850E-002;4.936095792800188E-003;1.659177127294242E-003;
2.403333333333334E+009;1.663773804903030E-001;5.674557387828827E-002;4.788245074450970E-003;1.317176735028625E-003;
2.403500000000000E+009;1.681349426507950E-001;5.467662215232849E-002;4.997793585062027E-003;1.203836640343070E-003;
2.403666666666667E+009;1.697286665439606E-001;5.265774950385094E-002;5.173887591809034E-003;8.731582202017307E-004;
2.403833333333334E+009;1.715522855520248E-001;5.065815895795822E-002;5.159205291420221E-003;6.021141889505088E-004;
2.404000000000000E+009;1.731721162796021E-001;4.873095825314522E-002;5.117918364703655E-003;2.915905497502536E-004;
2.404166666666667E+009;1.750035583972931E-001;4.707890376448631E-002;5.226297769695520E-003;-4.042490400024690E-005;
2.404333333333334E+009;1.767250448465347E-001;4.555175080895424E-002;5.163338035345078E-003;-1.879916235338897E-004;
2.404500000000000E+009;1.783249080181122E-001;4.403498023748398E-002;5.039941053837538E-003;-4.241623100824654E-004;
2.404666666666667E+009;1.802798509597778E-001;4.296586662530899E-002;5.124819930642843E-003;-5.771889118477702E-004;
2.404833333333334E+009;1.818652302026749E-001;4.162347316741943E-002;4.907773341983557E-003;-9.149557445198298E-004;
2.405000000000000E+009;1.834383904933929E-001;4.101681709289551E-002;4.966634325683117E-003;-1.203625346533954E-003;
2.405166666666667E+009;1.849240362644196E-001;4.020743444561958E-002;4.893003031611443E-003;-1.262124162167311E-003;
2.405333333333334E+009;1.863782405853272E-001;3.965693339705467E-002;4.673496354371309E-003;-1.479660044424236E-003;
2.405500000000000E+009;1.879837661981583E-001;3.913361206650734E-002;4.637572914361954E-003;-1.555652939714491E-003;
2.405666666666667E+009;1.893852055072784E-001;3.870493173599243E-002;4.695740994066000E-003;-1.818572869524360E-003;
2.405833333333334E+009;1.905334442853928E-001;3.855168819427490E-002;4.453781992197037E-003;-1.962569076567888E-003;
2.406000000000000E+009;1.919174641370773E-001;3.840543329715729E-002;4.315709229558706E-003;-2.156036905944347E-003;
2.406166666666667E+009;1.929052025079727E-001;3.817483410239220E-002;4.235619213432074E-003;-2.184068085625768E-003;
2.406333333333334E+009;1.939140111207962E-001;3.839106857776642E-002;4.164556041359901E-003;-2.422264078631997E-003;
2.406500000000000E+009;1.948624998331070E-001;3.837430477142334E-002;4.173221532255411E-003;-2.430396620184183E-003;
2.406666666666667E+009;1.955445259809494E-001;3.855300322175026E-002;3.804643405601382E-003;-2.723665675148368E-003;
2.406833333333334E+009;1.962491869926453E-001;3.863152116537094E-002;3.811806440353394E-003;-2.894733101129532E-003;
2.407000000000000E+009;1.966591924428940E-001;3.906760364770889E-002;3.793091513216496E-003;-2.837413456290960E-003;
2.407166666666667E+009;1.972371935844421E-001;3.876646235585213E-002;3.599146381020546E-003;-3.052487270906568E-003;
2.407333333333334E+009;1.973479837179184E-001;3.931814059615135E-002;3.278300864621997E-003;-3.247219370678067E-003;
2.407500000000000E+009;1.974228322505951E-001;3.938536718487740E-002;3.495842218399048E-003;-3.312554210424423E-003;
2.407666666666667E+009;1.976097524166107E-001;3.952146694064140E-002;2.986541017889977E-003;-3.514656331390142E-003;
2.407833333333334E+009;1.971004009246826E-001;3.949391469359398E-002;2.825065515935421E-003;-3.546004882082343E-003;
2.408000000000000E+009;1.971658319234848E-001;3.943405672907829E-002;2.765009878203273E-003;-3.627204336225987E-003;
2.408166666666667E+009;1.966365873813629E-001;3.929904848337174E-002;2.360427286475897E-003;-3.703569760546088E-003;
2.408333333333334E+009;1.962064355611801E-001;3.890554979443550E-002;2.233314560726285E-003;-3.799651516601443E-003;
2.408500000000000E+009;1.955692321062088E-001;3.876669332385063E-002;2.249391749501228E-003;-3.695320105180144E-003;
2.408666666666667E+009;1.950763314962387E-001;3.835443779826164E-002;2.140916185453534E-003;-3.712147241458297E-003;
2.408833333333334E+009;1.943259090185165E-001;3.784322738647461E-002;1.949341152794659E-003;-3.709161421284080E-003;
2.409000000000000E+009;1.934062242507935E-001;3.697145730257034E-002;1.741203246638179E-003;-3.767507849261165E-003;
2.409166666666667E+009;1.925221681594849E-001;3.616091609001160E-002;1.568652340210974E-003;-3.773011500015855E-003;
2.409333333333334E+009;1.915341615676880E-001;3.541437909007072E-002;1.362603507004678E-003;-3.710970282554627E-003;
2.409500000000000E+009;1.904294043779373E-001;3.399980813264847E-002;1.419393694959581E-003;-3.746329341083765E-003;
2.409666666666667E+009;1.893798559904099E-001;3.273909166455269E-002;1.340458868071437E-003;-3.780311904847622E-003;
2.409833333333334E+009;1.883805245161057E-001;3.149377182126045E-002;1.314751571044326E-003;-3.767576301470399E-003;
2.410000000000000E+009;1.873425096273422E-001;2.991561405360699E-002;1.077827997505665E-003;-3.737736493349075E-003;
2.410166666666667E+009;1.861426532268524E-001;2.831319905817509E-002;9.170076227746904E-004;-3.859826596453786E-003;
2.410333333333334E+009;1.851115524768829E-001;2.654976956546307E-002;9.189638658426702E-004;-3.931671380996704E-003;
2.410500000000000E+009;1.841325014829636E-001;2.463977597653866E-002;5.101496935822070E-004;-3.716199658811092E-003;
2.410666666666667E+009;1.832315176725388E-001;2.251918613910675E-002;5.224258638918400E-004;-3.891951404511929E-003;
2.410833333333334E+009;1.824810206890106E-001;2.032472379505634E-002;4.243846924509853E-004;-3.839008510112763E-003;
2.411000000000000E+009;1.816156208515167E-001;1.822859235107899E-002;2.358457131776959E-004;-3.626137739047408E-003;
2.411166666666667E+009;1.808013319969177E-001;1.592992618680000E-002;1.117986030294560E-004;-3.756394609808922E-003;
2.411333333333334E+009;1.802572607994080E-001;1.343982014805079E-002;6.809600017732009E-005;-3.579773940145969E-003;
2.411500000000000E+009;1.796416342258453E-001;1.101894862949848E-002;-4.020538181066513E-004;-3.560422919690609E-003;
2.411666666666667E+009;1.793404221534729E-001;8.670100942254067E-003;-4.505878605414182E-004;-3.462848486378789E-003;
2.411833333333334E+009;1.790542304515839E-001;6.145426537841559E-003;-5.043177516199648E-004;-3.350798506289721E-003;
2.412000000000000E+009;1.790017336606979E-001;3.532141447067261E-003;-4.171443288214505E-004;-3.205146407708526E-003;
2.412166666666667E+009;1.790321320295334E-001;1.164464047178626E-003;-6.646611145697534E-004;-3.185300854966044E-003;
2.412333333333334E+009;1.791137158870697E-001;-1.409703982062638E-003;-7.068784907460213E-004;-2.924367319792509E-003;
2.412500000000000E+009;1.794567257165909E-001;-3.953620325773954E-003;-5.853606853634119E-004;-2.874330850318074E-003;
2.412666666666667E+009;1.800108104944229E-001;-6.559154484421015E-003;-7.500565261580050E-004;-2.774226013571024E-003;
2.412833333333334E+009;1.806868165731430E-001;-8.896007202565670E-003;-6.043678149580956E-004;-2.640573773533106E-003;
2.413000000000000E+009;1.814911514520645E-001;-1.138704456388950E-002;-4.619888786692172E-004;-2.608612645417452E-003;
2.413166666666667E+009;1.821547448635101E-001;-1.374855265021324E-002;-7.159184897318482E-004;-2.600846113637090E-003;
2.413333333333334E+009;1.830822825431824E-001;-1.626682281494141E-002;-4.885170492343605E-004;-2.807447919622064E-003;
2.413500000000000E+009;1.839240640401840E-001;-1.857913658022881E-002;-5.232010735198855E-004;-2.693634945899248E-003;
2.413666666666667E+009;1.850220412015915E-001;-2.087209373712540E-002;-5.362905212678015E-004;-2.737177768722177E-003;
2.413833333333334E+009;1.863618642091751E-001;-2.305181324481964E-002;-5.595564725808799E-004;-2.751767402514815E-003;
2.414000000000000E+009;1.873161196708679E-001;-2.518121898174286E-002;-8.065945585258305E-004;-2.771267434582114E-003;
2.414166666666667E+009;1.885446459054947E-001;-2.709224633872509E-002;-7.247474859468639E-004;-2.846929710358381E-003;
2.414333333333334E+009;1.897125840187073E-001;-2.902376092970371E-002;-7.881424971856177E-004;-2.839735010638833E-003;
2.414500000000000E+009;1.910160332918167E-001;-3.085292130708695E-002;-9.733303450047970E-004;-2.902122447267175E-003;
2.414666666666667E+009;1.922886967658997E-001;-3.240833804011345E-002;-1.242748694494367E-003;-2.689060987904668E-003;
2.414833333333334E+009;1.935098022222519E-001;-3.380388393998146E-002;-1.171425683423877E-003;-2.775731729343534E-003;
2.415000000000000E+009;1.945529431104660E-001;-3.505216538906097E-002;-1.253032009117305E-003;-2.724384889006615E-003;
2.415166666666667E+009;1.959153413772583E-001;-3.633804246783257E-002;-1.362191862426698E-003;-2.523839939385653E-003;
2.415333333333334E+009;1.971948593854904E-001;-3.733065351843834E-002;-1.414233003742993E-003;-2.495755674317479E-003;
2.415500000000000E+009;1.982646137475967E-001;-3.808020055294037E-002;-1.565140322782099E-003;-2.606438472867012E-003;
2.415666666666667E+009;1.994558572769165E-001;-3.901197016239166E-002;-1.495332689955831E-003;-2.442076569423080E-003;
2.415833333333334E+009;2.004846483469009E-001;-3.972704708576202E-002;-1.492168521508575E-003;-2.365197986364365E-003;
2.416000000000000E+009;2.013444304466248E-001;-4.022168368101120E-002;-1.514391740784049E-003;-2.270283410325646E-003;
2.416166666666667E+009;2.021798491477966E-001;-4.087137058377266E-002;-1.551651861518621E-003;-2.157559618353844E-003;
2.416333333333334E+009;2.030472606420517E-001;-4.113251343369484E-002;-1.574236550368369E-003;-2.124705584719777E-003;
2.416500000000000E+009;2.034775018692017E-001;-4.151561856269836E-002;-1.486174063757062E-003;-2.274936996400356E-003;
2.416666666666667E+009;2.040007561445236E-001;-4.177832975983620E-002;-1.348073827102780E-003;-2.198107074946165E-003;
2.416833333333334E+009;2.042487263679504E-001;-4.169573634862900E-002;-1.521739293821156E-003;-2.338980091735721E-003;
2.417000000000000E+009;2.044462263584137E-001;-4.199207946658135E-002;-1.478512422181666E-003;-2.266062190756202E-003;
2.417166666666667E+009;2.043949961662293E-001;-4.173211008310318E-002;-1.309596118517220E-003;-2.338284626603127E-003;
2.417333333333334E+009;2.042312771081924E-001;-4.160519316792488E-002;-1.532201189547777E-003;-2.413044217973948E-003;
2.417500000000000E+009;2.041440159082413E-001;-4.160620644688606E-002;-1.612188294529915E-003;-2.619230654090643E-003;
2.417666666666667E+009;2.035582959651947E-001;-4.120545089244843E-002;-1.682546106167138E-003;-2.536077518016100E-003;
2.417833333333334E+009;2.033728808164597E-001;-4.096762835979462E-002;-1.811559312045574E-003;-2.635397482663393E-003;
2.418000000000000E+009;2.027458101511002E-001;-4.073273390531540E-002;-2.050436567515135E-003;-2.642469713464379E-003;
2.418166666666667E+009;2.020317167043686E-001;-4.055730625987053E-002;-2.291065175086260E-003;-2.629702910780907E-003;
2.418333333333334E+009;2.011053413152695E-001;-4.026301205158234E-002;-2.564198570325971E-003;-2.716504968702793E-003;
2.418500000000000E+009;2.002213895320892E-001;-4.027053713798523E-002;-2.728716703131795E-003;-2.586006186902523E-003;
2.418666666666667E+009;1.992247402667999E-001;-4.011107981204987E-002;-2.902265172451735E-003;-2.445296384394169E-003;
2.418833333333334E+009;1.979553401470184E-001;-4.013877734541893E-002;-3.062236588448286E-003;-2.233867533504963E-003;
2.419000000000000E+009;1.967197656631470E-001;-4.036126658320427E-002;-3.233063966035843E-003;-2.228190191090107E-003;
2.419166666666667E+009;1.955746710300446E-001;-4.041805490851402E-002;-3.397200722247362E-003;-1.990617020055652E-003;
2.419333333333334E+009;1.939908862113953E-001;-4.096880182623863E-002;-3.645753022283316E-003;-1.841142191551626E-003;
2.419500000000000E+009;1.925353854894638E-001;-4.129480570554733E-002;-3.609307343140245E-003;-1.659439993090928E-003;
2.419666666666667E+009;1.908845007419586E-001;-4.186302050948143E-002;-3.545720363035798E-003;-1.555772032588720E-003;
2.419833333333334E+009;1.894011944532394E-001;-4.252922907471657E-002;-3.649093210697174E-003;-1.269729807972908E-003;
2.420000000000000E+009;1.877337098121643E-001;-4.337485507130623E-002;-3.600614843890071E-003;-1.085686613805592E-003;
2.420166666666667E+009;1.861175745725632E-001;-4.427602514624596E-002;-3.704025177285075E-003;-1.030926010571420E-003;
2.420333333333334E+009;1.842931956052780E-001;-4.536225646734238E-002;-3.587819403037429E-003;-9.340728865936399E-004;
2.420500000000000E+009;1.823865771293640E-001;-4.653242602944374E-002;-3.636779496446252E-003;-7.593599730171263E-004;
2.420666666666667E+009;1.809672117233276E-001;-4.772912338376045E-002;-3.653071587905288E-003;-6.936329300515354E-004;
2.420833333333334E+009;1.790882945060730E-001;-4.919258132576942E-002;-3.799096448346973E-003;-5.201035528443754E-004;
2.421000000000000E+009;1.776713728904724E-001;-5.085689574480057E-002;-3.735688515007496E-003;-4.412225098349154E-004;
2.421166666666667E+009;1.760776937007904E-001;-5.234339088201523E-002;-3.747607581317425E-003;-2.431279426673427E-004;
2.421333333333334E+009;1.743333041667938E-001;-5.400643497705460E-002;-3.576981835067272E-003;-1.343443000223488E-004;
2.421500000000000E+009;1.729813516139984E-001;-5.586856976151466E-002;-3.874765709042549E-003;-4.769114821101539E-005;
2.421666666666667E+009;1.715451925992966E-001;-5.774157494306564E-002;-3.757749684154987E-003;9.079084702534601E-005;
2.421833333333334E+009;1.702389568090439E-001;-5.972627177834511E-002;-3.827704815194011E-003;1.840424665715545E-004;
2.422000000000000E+009;1.690826416015625E-001;-6.160568073391914E-002;-3.778244834393263E-003;5.193601245991886E-004;
2.422166666666667E+009;1.682813763618469E-001;-6.374996155500412E-002;-3.871702123433352E-003;7.193640340119600E-004;
2.422333333333334E+009;1.671081930398941E-001;-6.591167300939560E-002;-3.754353616386652E-003;7.993187173269689E-004;
2.422500000000000E+009;1.662852168083191E-001;-6.794755905866623E-002;-3.746372880414128E-003;8.292309357784689E-004;
2.422666666666667E+009;1.654007285833359E-001;-7.005368173122406E-002;-3.653243649750948E-003;1.229488290846348E-003;
2.422833333333334E+009;1.647883057594299E-001;-7.220066338777542E-002;-3.467665519565344E-003;1.262174453586340E-003;
2.423000000000000E+009;1.641786992549896E-001;-7.438204437494278E-002;-3.321384079754353E-003;1.559422933496535E-003;
2.423166666666667E+009;1.639635115861893E-001;-7.648199796676636E-002;-3.332307562232018E-003;1.626694225706160E-003;
2.423333333333334E+009;1.637223511934280E-001;-7.842980325222015E-002;-3.254383802413940E-003;1.768288901075721E-003;
2.423500000000000E+009;1.636566221714020E-001;-8.040004223585129E-002;-3.089978825300932E-003;1.801691250875592E-003;
2.423666666666667E+009;1.637197881937027E-001;-8.233185857534409E-002;-2.844005823135376E-003;1.936860149726272E-003;
2.423833333333334E+009;1.634929776191711E-001;-8.430743217468262E-002;-2.841060981154442E-003;1.952138030901551E-003;
2.424000000000000E+009;1.636890619993210E-001;-8.625169843435288E-002;-2.666220068931580E-003;2.029937691986561E-003;
2.424166666666667E+009;1.637297272682190E-001;-8.797290176153183E-002;-2.516433596611023E-003;2.218730282038450E-003;
2.424333333333334E+009;1.641604155302048E-001;-8.959446102380753E-002;-2.400485100224614E-003;2.278573345392942E-003;
2.424500000000000E+009;1.642963290214539E-001;-9.151969850063324E-002;-2.195370849221945E-003;2.309979172423482E-003;
2.424666666666667E+009;1.647560596466065E-001;-9.297981113195419E-002;-2.100970363244414E-003;2.417826559394598E-003;
2.424833333333334E+009;1.653421819210053E-001;-9.447779506444931E-002;-2.116002608090639E-003;2.358583267778158E-003;
2.425000000000000E+009;1.657284796237946E-001;-9.565422683954239E-002;-1.953427679836750E-003;2.415312686935067E-003;
2.425166666666667E+009;1.661537736654282E-001;-9.698113799095154E-002;-1.864842954091728E-003;2.399460179731250E-003;
2.425333333333334E+009;1.665440648794174E-001;-9.805803745985031E-002;-1.701283152215183E-003;2.389678265899420E-003;
2.425500000000000E+009;1.672134250402451E-001;-9.913659095764160E-002;-1.632499159313738E-003;2.434910973533988E-003;
2.425666666666667E+009;1.676902025938034E-001;-9.977480024099350E-002;-1.529417582787573E-003;2.448110608384013E-003;
2.425833333333334E+009;1.680912971496582E-001;-1.008322462439537E-001;-1.522365142591298E-003;2.389018423855305E-003;
2.426000000000000E+009;1.686750799417496E-001;-1.013397052884102E-001;-1.290685846470296E-003;2.374962670728564E-003;
2.426166666666667E+009;1.691148877143860E-001;-1.018964722752571E-001;-1.181264757178724E-003;2.305841073393822E-003;
2.426333333333334E+009;1.693866550922394E-001;-1.023937463760376E-001;-1.062272582203150E-003;2.374557778239250E-003;
2.426500000000000E+009;1.699209064245224E-001;-1.027138978242874E-001;-1.062624505721033E-003;2.304024528712034E-003;
2.426666666666667E+009;1.702359765768051E-001;-1.030669435858727E-001;-9.210243588313460E-004;2.183499280363321E-003;
2.426833333333334E+009;1.706794500350952E-001;-1.033440306782723E-001;-7.377155707217753E-004;2.263604663312435E-003;
2.427000000000000E+009;1.707870811223984E-001;-1.036491021513939E-001;-8.606110932305455E-004;2.095512812957168E-003;
2.427166666666667E+009;1.709062159061432E-001;-1.037021204829216E-001;-6.900312728248537E-004;2.006217138841748E-003;
2.427333333333334E+009;1.709413677453995E-001;-1.038929745554924E-001;-7.346763159148395E-004;2.134858863428235E-003;
2.427500000000000E+009;1.708545982837677E-001;-1.040239110589027E-001;-5.306075909174979E-004;1.931892242282629E-003;
2.427666666666667E+009;1.706728041172028E-001;-1.040750369429588E-001;-5.028278101235628E-004;1.816528849303722E-003;
