# Version 1.00
#
freq[Hz];re:Trc1_S11;im:Trc1_S11;re:Trc2_S21;im:Trc2_S21;
2.400000000000000E+009;1.550426930189133E-001;1.091006100177765E-001;2.836912404745817E-003;3.501677187159658E-003;
2.400166666666667E+009;1.546248346567154E-001;1.068197786808014E-001;2.983735408633947E-003;3.448552917689085E-003;
2.400333333333334E+009;1.546693891286850E-001;1.046043410897255E-001;2.949594287201762E-003;3.249728353694081E-003;
2.400500000000000E+009;1.543883383274078E-001;1.019532904028893E-001;3.291664877906442E-003;3.217040328308940E-003;
2.400666666666667E+009;1.544489860534668E-001;9.941252321004868E-002;3.337121335789561E-003;3.092770697548986E-003;
2.400833333333334E+009;1.542679667472839E-001;9.678710997104645E-002;3.316823625937104E-003;2.846639836207032E-003;
2.401000000000000E+009;1.544657945632935E-001;9.386754035949707E-002;3.208023961633444E-003;2.880720421671867E-003;
2.401166666666667E+009;1.543759852647781E-001;9.099456667900085E-002;3.378308378160000E-003;2.649801084771752E-003;
2.401333333333334E+009;1.547711491584778E-001;8.823297172784805E-002;3.338111331686378E-003;2.628855174407363E-003;
2.401500000000000E+009;1.549340039491653E-001;8.527304977178574E-002;3.481500083580613E-003;2.621658146381378E-003;
2.401666666666667E+009;1.554533094167709E-001;8.240228146314621E-002;3.411094658076763E-003;2.641120925545692E-003;
2.401833333333334E+009;1.557392030954361E-001;7.974838465452194E-002;3.667437471449375E-003;2.585480222478509E-003;
2.402000000000000E+009;1.564254313707352E-001;7.693671435117722E-002;3.638906171545386E-003;2.475319663062692E-003;
2.402166666666667E+009;1.572352498769760E-001;7.424049824476242E-002;3.825456369668245E-003;2.480461727827787E-003;
2.402333333333334E+009;1.582379937171936E-001;7.143918424844742E-002;3.967523109167814E-003;2.362160710617900E-003;
2.402500000000000E+009;1.594310104846954E-001;6.884317845106125E-002;4.088650457561016E-003;2.385564846917987E-003;
2.402666666666667E+009;1.605340540409088E-001;6.648705899715424E-002;4.347489215433598E-003;2.225910313427448E-003;
2.402833333333334E+009;1.615982800722122E-001;6.365060806274414E-002;4.458846990019083E-003;2.178701572120190E-003;
2.403000000000000E+009;1.631100177764893E-001;6.151821836829186E-002;4.608202259987593E-003;1.912274281494319E-003;
2.403166666666667E+009;1.649221628904343E-001;5.901015177369118E-002;4.922109190374613E-003;1.531900954432786E-003;
2.403333333333334E+009;1.663106530904770E-001;5.668167397379875E-002;5.070790648460388E-003;1.384670846164227E-003;
2.403500000000000E+009;1.680919975042343E-001;5.460894852876663E-002;5.127313546836376E-003;1.268811756744981E-003;
2.403666666666667E+009;1.700138598680496E-001;5.260038003325462E-002;5.209120921790600E-003;9.978880407288671E-004;
2.403833333333334E+009;1.716922223567963E-001;5.067856237292290E-002;5.361243616789579E-003;8.669595117680728E-004;
2.404000000000000E+009;1.732641011476517E-001;4.895923286676407E-002;5.216395016759634E-003;3.077306610066444E-004;
2.404166666666667E+009;1.750136464834213E-001;4.701994732022286E-002;5.274010356515646E-003;1.089311626856215E-004;
2.404333333333334E+009;1.767518669366837E-001;4.562545940279961E-002;5.225850734859705E-003;-1.496651675552130E-004;
2.404500000000000E+009;1.785266548395157E-001;4.412749409675598E-002;5.163263063877821E-003;-4.808786325156689E-004;
2.404666666666667E+009;1.801990270614624E-001;4.291463643312454E-002;5.086023826152086E-003;-7.028178661130369E-004;
2.404833333333334E+009;1.818689703941345E-001;4.170375317335129E-002;5.048875231295824E-003;-8.132698712870479E-004;
2.405000000000000E+009;1.833773404359818E-001;4.099325090646744E-002;4.877938423305750E-003;-9.731272002682090E-004;
2.405166666666667E+009;1.850335597991943E-001;4.009738191962242E-002;4.683889914304018E-003;-1.228058477863669E-003;
2.405333333333334E+009;1.866043061017990E-001;3.963484242558479E-002;4.697140771895647E-003;-1.409855321981013E-003;
2.405500000000000E+009;1.880338340997696E-001;3.908466547727585E-002;4.615979269146919E-003;-1.593636465258896E-003;
2.405666666666667E+009;1.893090605735779E-001;3.875808417797089E-002;4.530831240117550E-003;-1.646898454055190E-003;
2.405833333333334E+009;1.907453685998917E-001;3.841988742351532E-002;4.403944127261639E-003;-1.963327871635556E-003;
2.406000000000000E+009;1.918666064739227E-001;3.827693685889244E-002;4.338533151894808E-003;-2.002347027882934E-003;
2.406166666666667E+009;1.930001527070999E-001;3.822898492217064E-002;4.268005490303040E-003;-2.205261262133718E-003;
2.406333333333334E+009;1.939375698566437E-001;3.833208605647087E-002;4.086981993168593E-003;-2.320385538041592E-003;
2.406500000000000E+009;1.949119865894318E-001;3.845989331603050E-002;4.019236192107201E-003;-2.563437912613154E-003;
2.406666666666667E+009;1.956337541341782E-001;3.852241858839989E-002;3.904294222593308E-003;-2.692243317142129E-003;
2.406833333333334E+009;1.963454037904739E-001;3.863744810223579E-002;3.771414980292320E-003;-2.839066553860903E-003;
2.407000000000000E+009;1.967189610004425E-001;3.888934850692749E-002;3.723111003637314E-003;-2.832867437973619E-003;
2.407166666666667E+009;1.973137259483337E-001;3.889435902237892E-002;3.604250261560082E-003;-3.117332234978676E-003;
2.407333333333334E+009;1.973122954368591E-001;3.927536681294441E-002;3.408467862755060E-003;-3.111830679699779E-003;
2.407500000000000E+009;1.973702013492584E-001;3.950641676783562E-002;3.184067783877254E-003;-3.356771776452661E-003;
2.407666666666667E+009;1.975676566362381E-001;3.954075276851654E-002;3.035996342077851E-003;-3.322325879707933E-003;
2.407833333333334E+009;1.971293836832047E-001;3.945961222052574E-002;2.825206611305475E-003;-3.692379454150796E-003;
2.408000000000000E+009;1.971985250711441E-001;3.941559791564941E-002;2.741699106991291E-003;-3.636186709627509E-003;
2.408166666666667E+009;1.966987848281860E-001;3.934533149003983E-002;2.423435915261507E-003;-3.502658102661371E-003;
2.408333333333334E+009;1.962412595748901E-001;3.905204683542252E-002;2.312950324267149E-003;-3.702130168676376E-003;
2.408500000000000E+009;1.956305950880051E-001;3.874494507908821E-002;2.115489915013313E-003;-3.734455211088061E-003;
2.408666666666667E+009;1.952096521854401E-001;3.847530111670494E-002;2.066974993795157E-003;-3.593282774090767E-003;
2.408833333333334E+009;1.942669600248337E-001;3.773261234164238E-002;1.967645250260830E-003;-3.766186768189073E-003;
2.409000000000000E+009;1.934301257133484E-001;3.704532235860825E-002;1.785327331162989E-003;-3.616852685809135E-003;
2.409166666666667E+009;1.924843788146973E-001;3.609583526849747E-002;1.676362822763622E-003;-3.689258592203260E-003;
2.409333333333334E+009;1.915580928325653E-001;3.538878262042999E-002;1.521942904219031E-003;-3.719709813594818E-003;
2.409500000000000E+009;1.905522197484970E-001;3.414135053753853E-002;1.411763718351722E-003;-3.714464139193296E-003;
2.409666666666667E+009;1.894599646329880E-001;3.282916545867920E-002;1.317929243668914E-003;-3.750377800315619E-003;
2.409833333333334E+009;1.884387582540512E-001;3.145199269056320E-002;1.305801444686949E-003;-3.842104459181428E-003;
2.410000000000000E+009;1.873037368059158E-001;3.002393618226051E-002;1.188397523947060E-003;-3.715110477060080E-003;
2.410166666666667E+009;1.861801594495773E-001;2.820407412946224E-002;9.201437933370471E-004;-3.861006116494536E-003;
2.410333333333334E+009;1.851659864187241E-001;2.662966214120388E-002;8.584366296418011E-004;-3.846439300104976E-003;
2.410500000000000E+009;1.840485930442810E-001;2.460175752639771E-002;6.463160389102995E-004;-3.783186897635460E-003;
2.410666666666667E+009;1.830831468105316E-001;2.251264266669750E-002;6.158242467790842E-004;-3.911761101335287E-003;
2.410833333333334E+009;1.823549419641495E-001;2.037759684026241E-002;4.079995269421488E-004;-3.724804148077965E-003;
2.411000000000000E+009;1.815493851900101E-001;1.821826025843620E-002;2.703363716136664E-004;-3.799916012212634E-003;
2.411166666666667E+009;1.808781623840332E-001;1.589211821556091E-002;5.974821033305489E-005;-3.762666601687670E-003;
2.411333333333334E+009;1.801655739545822E-001;1.333096530288458E-002;-1.378145243506879E-004;-3.527385648339987E-003;
2.411500000000000E+009;1.797260046005249E-001;1.093939971178770E-002;-2.731260901782662E-004;-3.639754839241505E-003;
2.411666666666667E+009;1.793051213026047E-001;8.662122301757336E-003;-2.996079274453223E-004;-3.493154188618064E-003;
2.411833333333334E+009;1.789387613534927E-001;6.004231516271830E-003;-5.293193389661610E-004;-3.390811383724213E-003;
2.412000000000000E+009;1.790550053119659E-001;3.440154250711203E-003;-5.534923984669149E-004;-3.112507052719593E-003;
2.412166666666667E+009;1.790445446968079E-001;1.131140394136310E-003;-5.436407518573105E-004;-3.040784969925880E-003;
2.412333333333334E+009;1.790519803762436E-001;-1.439857529476285E-003;-4.825950600206852E-004;-2.869803458452225E-003;
2.412500000000000E+009;1.795512884855270E-001;-3.890245920047164E-003;-6.462878081947565E-004;-2.847387222573161E-003;
2.412666666666667E+009;1.799514442682266E-001;-6.492018699645996E-003;-6.046325433999300E-004;-2.720625838264823E-003;
2.412833333333334E+009;1.806010305881500E-001;-8.979202248156071E-003;-7.415938307531178E-004;-2.656461903825402E-003;
2.413000000000000E+009;1.814011186361313E-001;-1.152398064732552E-002;-6.914339028298855E-004;-2.749155042693019E-003;
2.413166666666667E+009;1.820134520530701E-001;-1.382662821561098E-002;-6.174723966978490E-004;-2.658346202224493E-003;
2.413333333333334E+009;1.831733733415604E-001;-1.623506285250187E-002;-5.113712395541370E-004;-2.554767299443483E-003;
2.413500000000000E+009;1.839302480220795E-001;-1.864064671099186E-002;-5.588046624325216E-004;-2.607793081551790E-003;
2.413666666666667E+009;1.851461082696915E-001;-2.104349248111248E-002;-4.948350251652300E-004;-2.611096482723951E-003;
2.413833333333334E+009;1.862153708934784E-001;-2.309381216764450E-002;-5.654075648635626E-004;-2.713489579036832E-003;
2.414000000000000E+009;1.873562633991242E-001;-2.506150864064694E-002;-6.081667961552739E-004;-2.889522816985846E-003;
2.414166666666667E+009;1.885880380868912E-001;-2.716368623077869E-002;-7.993280887603760E-004;-2.788366284221411E-003;
2.414333333333334E+009;1.896987408399582E-001;-2.917218208312988E-002;-8.524616132490337E-004;-2.767044818028808E-003;
2.414500000000000E+009;1.910427957773209E-001;-3.074513003230095E-002;-9.428735356777906E-004;-2.863487228751183E-003;
2.414666666666667E+009;1.921988278627396E-001;-3.232017531991005E-002;-1.083232462406158E-003;-2.737740520387888E-003;
2.414833333333334E+009;1.934419721364975E-001;-3.379499167203903E-002;-1.206297776661813E-003;-2.649499103426933E-003;
2.415000000000000E+009;1.946338266134262E-001;-3.521719202399254E-002;-1.372162019833922E-003;-2.762530464679003E-003;
2.415166666666667E+009;1.960250586271286E-001;-3.633574396371841E-002;-1.315485569648445E-003;-2.535177860409021E-003;
2.415333333333334E+009;1.970148980617523E-001;-3.732404857873917E-002;-1.403647591359913E-003;-2.416031435132027E-003;
2.415500000000000E+009;1.983883231878281E-001;-3.812906891107559E-002;-1.365849864669144E-003;-2.501577604562044E-003;
2.415666666666667E+009;1.995089501142502E-001;-3.900319710373879E-002;-1.482132473029196E-003;-2.331183291971684E-003;
2.415833333333334E+009;2.004499435424805E-001;-3.963339328765869E-002;-1.451826305128634E-003;-2.314178273081780E-003;
2.416000000000000E+009;2.013181895017624E-001;-4.028956592082977E-002;-1.520802848972380E-003;-2.165569458156824E-003;
2.416166666666667E+009;2.022694498300552E-001;-4.084679111838341E-002;-1.617759931832552E-003;-2.279215492308140E-003;
2.416333333333334E+009;2.030456811189652E-001;-4.107744246721268E-002;-1.440492691472173E-003;-2.220783615484834E-003;
2.416500000000000E+009;2.035729587078095E-001;-4.143460467457771E-002;-1.466402667574585E-003;-2.204661024734378E-003;
2.416666666666667E+009;2.039063721895218E-001;-4.168680682778359E-002;-1.519891782663763E-003;-2.183705102652311E-003;
2.416833333333334E+009;2.042423337697983E-001;-4.175437241792679E-002;-1.321063260547817E-003;-2.171375323086977E-003;
2.417000000000000E+009;2.044579535722733E-001;-4.192179813981056E-002;-1.474839402362704E-003;-2.181218238547444E-003;
2.417166666666667E+009;2.043734043836594E-001;-4.176643490791321E-002;-1.500181271694601E-003;-2.384716179221869E-003;
2.417333333333334E+009;2.042323946952820E-001;-4.141819104552269E-002;-1.500524114817381E-003;-2.374837175011635E-003;
2.417500000000000E+009;2.041835486888886E-001;-4.157119989395142E-002;-1.643700874410570E-003;-2.575928578153253E-003;
2.417666666666667E+009;2.035918682813644E-001;-4.120066016912460E-002;-1.629684702493250E-003;-2.541174879297614E-003;
2.417833333333334E+009;2.032265216112137E-001;-4.098924994468689E-002;-1.894939108751714E-003;-2.684296807274222E-003;
2.418000000000000E+009;2.027273923158646E-001;-4.071592167019844E-002;-2.037970814853907E-003;-2.617820631712675E-003;
2.418166666666667E+009;2.020063698291779E-001;-4.053851589560509E-002;-2.389061264693737E-003;-2.788600744679570E-003;
2.418333333333334E+009;2.011484205722809E-001;-4.032808542251587E-002;-2.523162867873907E-003;-2.581432228907943E-003;
2.418500000000000E+009;2.001393437385559E-001;-4.016388952732086E-002;-2.674586838111281E-003;-2.657357370480895E-003;
2.418666666666667E+009;1.992828547954559E-001;-4.006164893507958E-002;-2.884708577767015E-003;-2.630165312439203E-003;
2.418833333333334E+009;1.979940235614777E-001;-4.025659710168839E-002;-3.168398747220635E-003;-2.383428625762463E-003;
2.419000000000000E+009;1.966855973005295E-001;-4.031049832701683E-002;-3.205018350854516E-003;-2.229754580184817E-003;
2.419166666666667E+009;1.955327540636063E-001;-4.044626653194428E-002;-3.298876341432333E-003;-2.063419437035918E-003;
2.419333333333334E+009;1.941286623477936E-001;-4.099489375948906E-002;-3.557781921699643E-003;-1.904301694594324E-003;
2.419500000000000E+009;1.925183832645416E-001;-4.125419259071350E-002;-3.410659031942487E-003;-1.740374136716127E-003;
2.419666666666667E+009;1.908790171146393E-001;-4.187366366386414E-002;-3.602459328249097E-003;-1.413847785443068E-003;
2.419833333333334E+009;1.893252432346344E-001;-4.256682470440865E-002;-3.622050397098064E-003;-1.318931812420487E-003;
2.420000000000000E+009;1.877102553844452E-001;-4.339813441038132E-002;-3.606097539886832E-003;-1.188474358059466E-003;
2.420166666666667E+009;1.859150230884552E-001;-4.432053864002228E-002;-3.625621087849140E-003;-1.120599801652134E-003;
2.420333333333334E+009;1.843805760145187E-001;-4.534544423222542E-002;-3.613129258155823E-003;-7.585539133287966E-004;
2.420500000000000E+009;1.824711710214615E-001;-4.662870243191719E-002;-3.831424051895738E-003;-8.326572133228183E-004;
2.420666666666667E+009;1.809360980987549E-001;-4.760807380080223E-002;-3.661604598164558E-003;-7.163600530475378E-004;
2.420833333333334E+009;1.791665703058243E-001;-4.919369518756867E-002;-3.652135841548443E-003;-5.644346820190549E-004;
2.421000000000000E+009;1.775280237197876E-001;-5.062405765056610E-002;-3.778218990191817E-003;-5.316886235959828E-004;
2.421166666666667E+009;1.760505139827728E-001;-5.244249105453491E-002;-3.664897056296468E-003;-2.860571257770062E-004;
2.421333333333334E+009;1.743447184562683E-001;-5.392079427838326E-002;-3.778292331844568E-003;-2.773286250885576E-004;
2.421500000000000E+009;1.728118211030960E-001;-5.593598634004593E-002;-3.821887774392963E-003;-1.766742934705690E-005;
2.421666666666667E+009;1.715090423822403E-001;-5.774300172924995E-002;-3.877562005072832E-003;1.984712143894285E-004;
2.421833333333334E+009;1.704022735357285E-001;-5.956166982650757E-002;-3.714122343808413E-003;2.703943173401058E-004;
2.422000000000000E+009;1.691217273473740E-001;-6.160092726349831E-002;-3.744630608707666E-003;3.893470275215805E-004;
2.422166666666667E+009;1.680958867073059E-001;-6.394671648740768E-002;-3.833767725154758E-003;5.493186181411147E-004;
2.422333333333334E+009;1.669975668191910E-001;-6.571970880031586E-002;-3.655594307929277E-003;7.581604877486825E-004;
2.422500000000000E+009;1.663271933794022E-001;-6.792885810136795E-002;-3.634238149970770E-003;1.049893908202648E-003;
2.422666666666667E+009;1.653762012720108E-001;-6.996884196996689E-002;-3.617183538153768E-003;1.153979566879571E-003;
2.422833333333334E+009;1.651018261909485E-001;-7.204307615756989E-002;-3.505876986309886E-003;1.222598715685308E-003;
2.423000000000000E+009;1.641959846019745E-001;-7.428271323442459E-002;-3.485853783786297E-003;1.319095259532332E-003;
2.423166666666667E+009;1.640626043081284E-001;-7.626274228096008E-002;-3.332462394610047E-003;1.481244689784944E-003;
2.423333333333334E+009;1.636457145214081E-001;-7.843294739723206E-002;-3.072768449783325E-003;1.638878951780498E-003;
2.423500000000000E+009;1.636709868907929E-001;-8.040525764226914E-002;-2.985351486131549E-003;1.800605794414878E-003;
2.423666666666667E+009;1.635721474885941E-001;-8.240606635808945E-002;-2.937302459031344E-003;1.888696802780032E-003;
2.423833333333334E+009;1.635390967130661E-001;-8.433483541011810E-002;-2.983141457661986E-003;2.057945355772972E-003;
2.424000000000000E+009;1.635986864566803E-001;-8.631099015474320E-002;-2.671619178727269E-003;2.098417840898037E-003;
2.424166666666667E+009;1.637040078639984E-001;-8.805573731660843E-002;-2.629015827551484E-003;2.166777849197388E-003;
2.424333333333334E+009;1.639459729194641E-001;-8.966803550720215E-002;-2.479139249771833E-003;2.200536197051406E-003;
2.424500000000000E+009;1.645190268754959E-001;-9.154856204986572E-002;-2.380975754931569E-003;2.156596630811691E-003;
2.424666666666667E+009;1.647271811962128E-001;-9.302094578742981E-002;-2.165857236832380E-003;2.135898685082793E-003;
2.424833333333334E+009;1.653707921504974E-001;-9.461338818073273E-002;-1.956996042281389E-003;2.407708438113332E-003;
2.425000000000000E+009;1.658154129981995E-001;-9.578263014554977E-002;-1.902456628158689E-003;2.296909224241972E-003;
2.425166666666667E+009;1.661530733108521E-001;-9.696730971336365E-002;-1.869881991297007E-003;2.294280333444476E-003;
2.425333333333334E+009;1.665598005056381E-001;-9.796877205371857E-002;-1.765458495356143E-003;2.513485960662365E-003;
2.425500000000000E+009;1.671340316534042E-001;-9.917788207530975E-002;-1.621178467758000E-003;2.292884979397059E-003;
2.425666666666667E+009;1.675724983215332E-001;-9.985688328742981E-002;-1.484212581999600E-003;2.437944291159511E-003;
2.425833333333334E+009;1.680485904216766E-001;-1.008718758821487E-001;-1.312459469772875E-003;2.507149940356612E-003;
2.426000000000000E+009;1.685630828142166E-001;-1.012500897049904E-001;-1.224146573804319E-003;2.449743682518601E-003;
2.426166666666667E+009;1.690813601016998E-001;-1.017941012978554E-001;-1.059397938661277E-003;2.399173798039556E-003;
2.426333333333334E+009;1.692812740802765E-001;-1.025423407554627E-001;-1.059180125594139E-003;2.340034348890185E-003;
2.426500000000000E+009;1.699199229478836E-001;-1.027511283755302E-001;-1.069643767550588E-003;2.399016637355089E-003;
2.426666666666667E+009;1.702641099691391E-001;-1.031323596835136E-001;-6.652746815234423E-004;2.465233439579606E-003;
2.426833333333334E+009;1.706962138414383E-001;-1.033956483006477E-001;-7.721398142166436E-004;2.108121756464243E-003;
2.427000000000000E+009;1.707971990108490E-001;-1.037034541368485E-001;-6.764355348423123E-004;2.142301062121987E-003;
2.427166666666667E+009;1.709255278110504E-001;-1.036196127533913E-001;-8.210036321543157E-004;2.213475760072470E-003;
2.427333333333334E+009;1.710242778062820E-001;-1.039317846298218E-001;-6.318007945083082E-004;2.138429321348667E-003;
2.427500000000000E+009;1.708859354257584E-001;-1.040270701050758E-001;-4.231145721860230E-004;2.179825678467751E-003;
2.427666666666667E+009;1.706865876913071E-001;-1.040165796875954E-001;-6.071515963412821E-004;1.854771282523871E-003;
