# Version 1.00
#
freq[Hz];re:Trc1_S11;im:Trc1_S11;re:Trc2_S21;im:Trc2_S21;
2.400000000000000E+009;1.554812341928482E-001;1.067799776792526E-001;-1.000020187348127E-002;-4.377485020086169E-004;
2.400166666666667E+009;1.551605314016342E-001;1.044591516256332E-001;-1.007807534188032E-002;-2.702880010474473E-004;
2.400333333333334E+009;1.550992280244827E-001;1.020280569791794E-001;-1.021847594529390E-002;9.364978905068710E-005;
2.400500000000000E+009;1.550616919994354E-001;9.938540309667587E-002;-1.029501948505640E-002;3.734066558536142E-004;
2.400666666666667E+009;1.552568525075913E-001;9.689708799123764E-002;-1.022271905094385E-002;7.914433954283595E-004;
2.400833333333334E+009;1.552447527647018E-001;9.398358315229416E-002;-1.040640659630299E-002;1.184328342787921E-003;
2.401000000000000E+009;1.555725485086441E-001;9.108810871839523E-002;-1.046929042786360E-002;1.524807186797261E-003;
2.401166666666667E+009;1.555523574352264E-001;8.850835263729096E-002;-1.046737376600504E-002;1.969086006283760E-003;
2.401333333333334E+009;1.559998393058777E-001;8.546710014343262E-002;-1.029319036751986E-002;2.421077806502581E-003;
2.401500000000000E+009;1.563631892204285E-001;8.287302404642105E-002;-1.035064272582531E-002;2.730418927967548E-003;
2.401666666666667E+009;1.569748222827911E-001;7.996950298547745E-002;-1.027330849319696E-002;3.123097820207477E-003;
2.401833333333334E+009;1.573766767978668E-001;7.727569341659546E-002;-1.024085748940706E-002;3.613670589402318E-003;
2.402000000000000E+009;1.582462191581726E-001;7.455629855394363E-002;-1.013614423573017E-002;3.801334183663130E-003;
2.402166666666667E+009;1.592654436826706E-001;7.202064990997315E-002;-9.937763214111328E-003;4.381733015179634E-003;
2.402333333333334E+009;1.601610183715820E-001;6.927373260259628E-002;-9.873456321656704E-003;4.767929669469595E-003;
2.402500000000000E+009;1.613764613866806E-001;6.665859371423721E-002;-9.850367903709412E-003;5.043650977313519E-003;
2.402666666666667E+009;1.625712066888809E-001;6.431727111339569E-002;-9.601341560482979E-003;5.471445154398680E-003;
2.402833333333334E+009;1.637788861989975E-001;6.179594993591309E-002;-9.374257177114487E-003;5.838171113282442E-003;
2.403000000000000E+009;1.653653383255005E-001;5.950648337602615E-002;-9.179087355732918E-003;6.257798057049513E-003;
2.403166666666667E+009;1.670736819505692E-001;5.726252123713493E-002;-8.988333866000176E-003;6.471429485827684E-003;
2.403333333333334E+009;1.684545576572418E-001;5.529178678989410E-002;-8.714876137673855E-003;7.041255943477154E-003;
2.403500000000000E+009;1.701217889785767E-001;5.296232178807259E-002;-8.401814848184586E-003;7.293892093002796E-003;
2.403666666666667E+009;1.718846708536148E-001;5.102586746215820E-002;-8.035724982619286E-003;7.607507519423962E-003;
2.403833333333334E+009;1.735211461782455E-001;4.913588613271713E-002;-7.509503047913313E-003;7.828021422028542E-003;
2.404000000000000E+009;1.751506179571152E-001;4.745128005743027E-002;-7.257367484271526E-003;8.122814819216728E-003;
2.404166666666667E+009;1.769893765449524E-001;4.592289403080940E-002;-6.856634281575680E-003;8.360505104064941E-003;
2.404333333333334E+009;1.786136031150818E-001;4.429053887724876E-002;-6.597034167498350E-003;8.775834925472736E-003;
2.404500000000000E+009;1.800664812326431E-001;4.269535839557648E-002;-6.015051156282425E-003;8.957995101809502E-003;
2.404666666666667E+009;1.818664669990540E-001;4.187950864434242E-002;-5.659237038344145E-003;9.129461832344532E-003;
2.404833333333334E+009;1.834469735622406E-001;4.066223278641701E-002;-5.391904618591070E-003;9.124570526182652E-003;
2.405000000000000E+009;1.847072839736939E-001;4.009259864687920E-002;-4.916137084364891E-003;9.277540259063244E-003;
2.405166666666667E+009;1.861777901649475E-001;3.915421292185783E-002;-4.567067604511976E-003;9.336729533970356E-003;
2.405333333333334E+009;1.875402629375458E-001;3.873918578028679E-002;-4.147287458181381E-003;9.482405148446560E-003;
2.405500000000000E+009;1.888943463563919E-001;3.830430284142494E-002;-3.767444984987378E-003;9.525639936327934E-003;
2.405666666666667E+009;1.900424361228943E-001;3.794171288609505E-002;-3.346245270222426E-003;9.578558616340160E-003;
2.405833333333334E+009;1.913159936666489E-001;3.760610893368721E-002;-3.061778610572219E-003;9.673533029854298E-003;
2.406000000000000E+009;1.923509091138840E-001;3.747670352458954E-002;-2.483600517734885E-003;9.622907266020775E-003;
2.406166666666667E+009;1.933582872152329E-001;3.723367303609848E-002;-2.275654580444098E-003;9.509848430752754E-003;
2.406333333333334E+009;1.941610425710678E-001;3.726916015148163E-002;-1.820908626541495E-003;9.508985094726086E-003;
2.406500000000000E+009;1.948494762182236E-001;3.728930652141571E-002;-1.482209889218211E-003;9.449441917240620E-003;
2.406666666666667E+009;1.954722106456757E-001;3.731740638613701E-002;-1.152100041508675E-003;9.424956515431404E-003;
2.406833333333334E+009;1.959034651517868E-001;3.730015084147453E-002;-8.815710898488760E-004;9.236496873199940E-003;
2.407000000000000E+009;1.962181776762009E-001;3.748743608593941E-002;-3.965723153669387E-004;9.073090739548206E-003;
2.407166666666667E+009;1.965949386358261E-001;3.742175176739693E-002;-1.641083799768239E-004;9.040024131536484E-003;
2.407333333333334E+009;1.965051889419556E-001;3.751769661903381E-002;-3.439262582105584E-005;8.826696313917637E-003;
2.407500000000000E+009;1.963101178407669E-001;3.749988973140717E-002;2.478875103406608E-004;8.764120750129223E-003;
2.407666666666667E+009;1.965163350105286E-001;3.748323395848274E-002;4.928470589220524E-004;8.632249198853970E-003;
2.407833333333334E+009;1.959524303674698E-001;3.719220310449600E-002;6.559185567311943E-004;8.434579707682133E-003;
2.408000000000000E+009;1.957633793354034E-001;3.707547485828400E-002;9.564680512994528E-004;8.238639682531357E-003;
2.408166666666667E+009;1.951286345720291E-001;3.672714531421661E-002;1.137203886173666E-003;8.227666839957237E-003;
2.408333333333334E+009;1.947334855794907E-001;3.626634925603867E-002;1.219987170770764E-003;7.916913367807865E-003;
2.408500000000000E+009;1.940110027790070E-001;3.584687039256096E-002;1.356763881631196E-003;7.644580211490393E-003;
2.408666666666667E+009;1.933445483446121E-001;3.525432199239731E-002;1.394739607349038E-003;7.632632739841938E-003;
2.408833333333334E+009;1.925205290317535E-001;3.464446589350700E-002;1.512796850875020E-003;7.585331331938505E-003;
2.409000000000000E+009;1.917116343975067E-001;3.370013833045960E-002;1.570095657370985E-003;7.312036119401455E-003;
2.409166666666667E+009;1.906639337539673E-001;3.257929161190987E-002;1.652208622545004E-003;7.140069734305143E-003;
2.409333333333334E+009;1.895915716886520E-001;3.160553425550461E-002;1.664733281359077E-003;7.112162653356791E-003;
2.409500000000000E+009;1.885181963443756E-001;3.038233518600464E-002;1.732609700411558E-003;6.963477469980717E-003;
2.409666666666667E+009;1.875772327184677E-001;2.908656187355518E-002;1.872503315098584E-003;6.881216540932655E-003;
2.409833333333334E+009;1.864618211984634E-001;2.759632840752602E-002;1.934388070367277E-003;6.866800133138895E-003;
2.410000000000000E+009;1.854870766401291E-001;2.591696195304394E-002;1.819691155105829E-003;6.738440599292517E-003;
2.410166666666667E+009;1.844488382339478E-001;2.401858009397984E-002;2.080051926895976E-003;6.653172429651022E-003;
2.410333333333334E+009;1.835621893405914E-001;2.218642644584179E-002;2.053919713944197E-003;6.752816960215569E-003;
2.410500000000000E+009;1.826006025075913E-001;2.044343575835228E-002;2.112454501911998E-003;6.708898115903139E-003;
2.410666666666667E+009;1.816600561141968E-001;1.818873360753059E-002;2.286897739395499E-003;6.654419936239719E-003;
2.410833333333334E+009;1.809321343898773E-001;1.601053401827812E-002;2.323973225429654E-003;6.627555470913649E-003;
2.411000000000000E+009;1.801951974630356E-001;1.367134414613247E-002;2.301678294315934E-003;6.747336126863957E-003;
2.411166666666667E+009;1.796860545873642E-001;1.167351473122835E-002;2.620605053380132E-003;6.745681166648865E-003;
2.411333333333334E+009;1.791548132896423E-001;9.085159748792648E-003;2.687223255634308E-003;6.543077528476715E-003;
2.411500000000000E+009;1.785471290349960E-001;6.736759562045336E-003;2.678656484931707E-003;6.567379459738731E-003;
2.411666666666667E+009;1.783762723207474E-001;4.420551471412182E-003;2.900811610743403E-003;6.558001507073641E-003;
2.411833333333334E+009;1.780782639980316E-001;2.069673733785749E-003;3.027637256309390E-003;6.529425736516714E-003;
2.412000000000000E+009;1.781487613916397E-001;-6.127973902039230E-004;3.010584972798824E-003;6.506523117423058E-003;
2.412166666666667E+009;1.784313470125198E-001;-2.850705757737160E-003;3.099713474512100E-003;6.509807892143726E-003;
2.412333333333334E+009;1.785203516483307E-001;-5.387512035667896E-003;3.202853491529822E-003;6.628474220633507E-003;
2.412500000000000E+009;1.789691597223282E-001;-7.810612209141254E-003;3.431149292737246E-003;6.397654768079519E-003;
2.412666666666667E+009;1.795323044061661E-001;-1.030910480767489E-002;3.477417398244143E-003;6.370781455188990E-003;
2.412833333333334E+009;1.801698803901672E-001;-1.243263669312000E-002;3.848043968901038E-003;6.292213685810566E-003;
2.413000000000000E+009;1.808243542909622E-001;-1.487721316516399E-002;3.739907406270504E-003;6.285856477916241E-003;
2.413166666666667E+009;1.817447841167450E-001;-1.696786843240261E-002;3.952714148908854E-003;6.249287165701389E-003;
2.413333333333334E+009;1.827242225408554E-001;-1.935146935284138E-002;4.154559690505266E-003;6.375026889145374E-003;
2.413500000000000E+009;1.834909468889237E-001;-2.175731025636196E-002;4.471531137824059E-003;6.444857921451330E-003;
2.413666666666667E+009;1.846239268779755E-001;-2.390125766396523E-002;4.513820633292198E-003;6.401672959327698E-003;
2.413833333333334E+009;1.857837736606598E-001;-2.581421844661236E-002;4.838009364902973E-003;6.155160255730152E-003;
2.414000000000000E+009;1.868995726108551E-001;-2.763616293668747E-002;4.996829666197300E-003;6.223694421350956E-003;
2.414166666666667E+009;1.879544854164124E-001;-2.946677617728710E-002;5.300362128764391E-003;6.317694205790758E-003;
2.414333333333334E+009;1.890863031148911E-001;-3.141052648425102E-002;5.613691639155150E-003;6.184067111462355E-003;
2.414500000000000E+009;1.903630197048187E-001;-3.287904337048531E-002;6.005283910781145E-003;5.998195614665747E-003;
2.414666666666667E+009;1.916595548391342E-001;-3.433890268206596E-002;6.065661087632179E-003;5.923510063439608E-003;
2.414833333333334E+009;1.926355063915253E-001;-3.572401776909828E-002;6.242379080504179E-003;5.821691825985909E-003;
2.415000000000000E+009;1.939050406217575E-001;-3.694457560777664E-002;6.514196749776602E-003;5.661823321133852E-003;
2.415166666666667E+009;1.949000507593155E-001;-3.796423599123955E-002;6.667076144367456E-003;5.519487429410219E-003;
2.415333333333334E+009;1.961530894041061E-001;-3.885647282004356E-002;7.024473045021296E-003;5.393137689679861E-003;
2.415500000000000E+009;1.972534954547882E-001;-3.959751129150391E-002;7.238354068249464E-003;5.207503214478493E-003;
2.415666666666667E+009;1.982531398534775E-001;-4.038840904831886E-002;7.592010311782360E-003;4.993242677301168E-003;
2.415833333333334E+009;1.990526467561722E-001;-4.099407792091370E-002;7.741756737232208E-003;4.794386681169272E-003;
2.416000000000000E+009;1.996973007917404E-001;-4.164748266339302E-002;8.017306216061115E-003;4.519913345575333E-003;
2.416166666666667E+009;2.005027681589127E-001;-4.210094735026360E-002;8.329400792717934E-003;4.347036127001047E-003;
2.416333333333334E+009;2.010658234357834E-001;-4.240177571773529E-002;8.503195829689503E-003;3.955517429858446E-003;
2.416500000000000E+009;2.014961093664169E-001;-4.253519326448441E-002;8.639419451355934E-003;3.728372044861317E-003;
2.416666666666667E+009;2.017864584922791E-001;-4.284748062491417E-002;8.874525316059589E-003;3.361739683896303E-003;
2.416833333333334E+009;2.019668370485306E-001;-4.283615946769714E-002;8.972100913524628E-003;3.178076585754752E-003;
2.417000000000000E+009;2.020439356565476E-001;-4.303513467311859E-002;9.346336126327515E-003;2.634112956002355E-003;
2.417166666666667E+009;2.017520815134049E-001;-4.278307408094406E-002;9.453440085053444E-003;2.338515361770988E-003;
2.417333333333334E+009;2.016222327947617E-001;-4.257275164127350E-002;9.535731747746468E-003;1.965048722922802E-003;
2.417500000000000E+009;2.012604922056198E-001;-4.253824055194855E-002;9.466215036809444E-003;1.571268425323069E-003;
2.417666666666667E+009;2.006585150957108E-001;-4.236739873886108E-002;9.614879265427589E-003;1.269386732019484E-003;
2.417833333333334E+009;2.002729028463364E-001;-4.214910045266151E-002;9.605793282389641E-003;8.750163251534104E-004;
2.418000000000000E+009;1.995599865913391E-001;-4.187313839793205E-002;9.475611150264740E-003;7.184217683970928E-004;
2.418166666666667E+009;1.987127363681793E-001;-4.180383682250977E-002;9.584023617208004E-003;1.449108531232923E-004;
2.418333333333334E+009;1.977876424789429E-001;-4.161523282527924E-002;9.410978294909000E-003;-1.686800678726286E-004;
2.418500000000000E+009;1.968595236539841E-001;-4.152803495526314E-002;9.516827762126923E-003;-4.673907533288002E-004;
2.418666666666667E+009;1.959418356418610E-001;-4.146935418248177E-002;9.421673603355885E-003;-7.196381338872016E-004;
2.418833333333334E+009;1.946566849946976E-001;-4.165474325418472E-002;9.310746565461159E-003;-1.004541409201920E-003;
2.419000000000000E+009;1.934368908405304E-001;-4.178223013877869E-002;9.161096066236496E-003;-1.287607825361192E-003;
2.419166666666667E+009;1.921066790819168E-001;-4.212099686264992E-002;9.238070808351040E-003;-1.660906244069338E-003;
2.419333333333334E+009;1.906713694334030E-001;-4.260973259806633E-002;9.113669395446777E-003;-1.978496089577675E-003;
2.419500000000000E+009;1.893470436334610E-001;-4.306792840361595E-002;8.995736949145794E-003;-2.288708696141839E-003;
2.419666666666667E+009;1.877134144306183E-001;-4.391003400087357E-002;8.846998214721680E-003;-2.360749291256070E-003;
2.419833333333334E+009;1.862454265356064E-001;-4.435180500149727E-002;8.766415528953075E-003;-2.682752208784223E-003;
2.420000000000000E+009;1.846146136522293E-001;-4.522045329213142E-002;8.599360473453999E-003;-2.899070968851447E-003;
2.420166666666667E+009;1.830349117517471E-001;-4.618723690509796E-002;8.553586900234222E-003;-3.100333502516151E-003;
2.420333333333334E+009;1.815666705369949E-001;-4.753157496452332E-002;8.332698605954647E-003;-3.295370377600193E-003;
2.420500000000000E+009;1.801127046346664E-001;-4.887010529637337E-002;8.138857781887054E-003;-3.692191792652011E-003;
2.420666666666667E+009;1.785091608762741E-001;-5.001794546842575E-002;8.195535279810429E-003;-3.838490927591920E-003;
2.420833333333334E+009;1.767067462205887E-001;-5.146083608269692E-002;8.056394755840302E-003;-4.078737460076809E-003;
2.421000000000000E+009;1.754699647426605E-001;-5.290900915861130E-002;7.919211871922016E-003;-4.342850763350725E-003;
2.421166666666667E+009;1.740249395370483E-001;-5.484215542674065E-002;7.840379141271114E-003;-4.599746316671372E-003;
2.421333333333334E+009;1.725264936685562E-001;-5.638612434267998E-002;7.636136841028929E-003;-4.801729228347540E-003;
2.421500000000000E+009;1.710194200277329E-001;-5.827471986413002E-002;7.351066451519728E-003;-5.026192869991064E-003;
2.421666666666667E+009;1.698372066020966E-001;-6.005957350134850E-002;7.278574630618095E-003;-5.217135418206453E-003;
2.421833333333334E+009;1.688328832387924E-001;-6.209715828299522E-002;7.081806659698486E-003;-5.493519362062216E-003;
2.422000000000000E+009;1.677757203578949E-001;-6.385038048028946E-002;6.742204073816538E-003;-5.597947631031275E-003;
2.422166666666667E+009;1.668553054332733E-001;-6.592975556850433E-002;6.731467787176371E-003;-5.875247530639172E-003;
2.422333333333334E+009;1.657820343971252E-001;-6.806158274412155E-002;6.414106581360102E-003;-6.017309613525868E-003;
2.422500000000000E+009;1.653162389993668E-001;-7.005134224891663E-002;6.161386612802744E-003;-6.205878220498562E-003;
2.422666666666667E+009;1.645653247833252E-001;-7.208878546953201E-002;5.972859449684620E-003;-6.472522392868996E-003;
2.422833333333334E+009;1.641617417335510E-001;-7.410379499197006E-002;5.700358189642429E-003;-6.554534658789635E-003;
2.423000000000000E+009;1.635988950729370E-001;-7.616239786148071E-002;5.356596782803536E-003;-6.614516954869032E-003;
2.423166666666667E+009;1.630693078041077E-001;-7.811067998409271E-002;5.254694726318121E-003;-6.822295021265745E-003;
2.423333333333334E+009;1.631540954113007E-001;-8.019921928644180E-002;4.803575575351715E-003;-6.853409111499786E-003;
2.423500000000000E+009;1.629052907228470E-001;-8.206626772880554E-002;4.587109200656414E-003;-6.987347733229399E-003;
2.423666666666667E+009;1.630240380764008E-001;-8.406516909599304E-002;4.265816882252693E-003;-6.967813707888126E-003;
2.423833333333334E+009;1.627816557884216E-001;-8.560086786746979E-002;3.998804837465286E-003;-7.049637846648693E-003;
2.424000000000000E+009;1.629882752895355E-001;-8.759318292140961E-002;3.718591295182705E-003;-6.994529627263546E-003;
2.424166666666667E+009;1.630563288927078E-001;-8.906175196170807E-002;3.552613779902458E-003;-7.147151511162520E-003;
2.424333333333334E+009;1.633130311965942E-001;-9.047546237707138E-002;3.351270454004407E-003;-6.999275647103787E-003;
2.424500000000000E+009;1.634844094514847E-001;-9.231752157211304E-002;3.157441271468997E-003;-6.962273269891739E-003;
2.424666666666667E+009;1.637755036354065E-001;-9.361284971237183E-002;3.032370703294873E-003;-6.917511112987995E-003;
2.424833333333334E+009;1.644603163003922E-001;-9.502311050891876E-002;2.848111325874925E-003;-7.034440990537405E-003;
2.425000000000000E+009;1.648551523685455E-001;-9.594067186117172E-002;2.700160490348935E-003;-7.099670358002186E-003;
2.425166666666667E+009;1.650169938802719E-001;-9.716510772705078E-002;2.503972966223955E-003;-6.997774355113506E-003;
2.425333333333334E+009;1.653365641832352E-001;-9.796868264675140E-002;2.350794384256005E-003;-7.057242561131716E-003;
2.425500000000000E+009;1.658058017492294E-001;-9.887218475341797E-002;2.072601811960340E-003;-6.982534658163786E-003;
2.425666666666667E+009;1.663092821836472E-001;-9.959282726049423E-002;2.112835645675659E-003;-6.949411239475012E-003;
2.425833333333334E+009;1.665008068084717E-001;-1.003245860338211E-001;1.786932931281626E-003;-6.955564487725496E-003;
2.426000000000000E+009;1.668618619441986E-001;-1.009338572621346E-001;1.705150236375630E-003;-7.134941872209311E-003;
2.426166666666667E+009;1.672082841396332E-001;-1.014318466186523E-001;1.569282263517380E-003;-6.899099797010422E-003;
2.426333333333334E+009;1.674605309963226E-001;-1.018304452300072E-001;1.267719548195601E-003;-6.992274895310402E-003;
2.426500000000000E+009;1.677975207567215E-001;-1.020858213305473E-001;1.316609908826649E-003;-7.116046268492937E-003;
2.426666666666667E+009;1.679979860782623E-001;-1.023803353309631E-001;1.108965487219393E-003;-7.225494366139174E-003;
2.426833333333334E+009;1.683171242475510E-001;-1.026350483298302E-001;9.328025626018643E-004;-7.196417078375816E-003;
2.427000000000000E+009;1.683418601751328E-001;-1.028420105576515E-001;7.404482457786799E-004;-7.133897393941879E-003;
2.427166666666667E+009;1.681725829839706E-001;-1.029611155390739E-001;5.046603037044406E-004;-7.183631882071495E-003;
2.427333333333334E+009;1.681218743324280E-001;-1.032613366842270E-001;3.453393001109362E-004;-7.305119186639786E-003;
2.427500000000000E+009;1.678546071052551E-001;-1.033647358417511E-001;3.748695307876915E-004;-7.195336744189262E-003;
2.427666666666667E+009;1.674765348434448E-001;-1.034059002995491E-001;9.509530354989693E-005;-7.136347237974405E-003;
2.427833333333334E+009;1.671859622001648E-001;-1.035592854022980E-001;-1.006234888336621E-004;-7.359859533607960E-003;
