# Version 1.00
#
freq[Hz];re:Trc1_S11;im:Trc1_S11;re:Trc2_S21;im:Trc2_S21;
2.400000000000000E+009;1.554570645093918E-001;1.066999286413193E-001;-9.968965314328671E-003;-5.485636065714061E-004;
2.400166666666667E+009;1.551690399646759E-001;1.043348386883736E-001;-9.974205866456032E-003;-2.349978167330846E-004;
2.400333333333334E+009;1.552657485008240E-001;1.018949449062347E-001;-1.019131857901812E-002;1.281478616874665E-004;
2.400500000000000E+009;1.551616042852402E-001;9.921909868717194E-002;-1.015763636678457E-002;4.198476672172546E-004;
2.400666666666667E+009;1.553322672843933E-001;9.664046764373779E-002;-1.033344306051731E-002;8.002973627299070E-004;
2.400833333333334E+009;1.552416980266571E-001;9.396819770336151E-002;-1.049322914332151E-002;1.205160282552242E-003;
2.401000000000000E+009;1.552943438291550E-001;9.114740788936615E-002;-1.043899450451136E-002;1.446563517674804E-003;
2.401166666666667E+009;1.555384546518326E-001;8.833133429288864E-002;-1.036754250526428E-002;2.003375673666596E-003;
2.401333333333334E+009;1.559562981128693E-001;8.573848009109497E-002;-1.046867854893208E-002;2.259945264086127E-003;
2.401500000000000E+009;1.563051789999008E-001;8.258035033941269E-002;-1.033846382051706E-002;2.805683994665742E-003;
2.401666666666667E+009;1.567844003438950E-001;7.987049221992493E-002;-1.023013889789581E-002;3.250523004680872E-003;
2.401833333333334E+009;1.573543250560761E-001;7.722364366054535E-002;-1.024942006915808E-002;3.589747240766883E-003;
2.402000000000000E+009;1.582661271095276E-001;7.424683123826981E-002;-1.001485157757998E-002;3.962658345699310E-003;
2.402166666666667E+009;1.591409295797348E-001;7.180264592170715E-002;-9.944588877260685E-003;4.368532914668322E-003;
2.402333333333334E+009;1.601304113864899E-001;6.922629475593567E-002;-9.736890904605389E-003;4.602395929396153E-003;
2.402500000000000E+009;1.614309549331665E-001;6.668438762426376E-002;-9.687542915344238E-003;5.013808142393827E-003;
2.402666666666667E+009;1.625266820192337E-001;6.420022249221802E-002;-9.606578387320042E-003;5.463619716465473E-003;
2.402833333333334E+009;1.638111919164658E-001;6.161703914403915E-002;-9.228791110217571E-003;5.762096494436264E-003;
2.403000000000000E+009;1.653773039579392E-001;5.925952643156052E-002;-9.178925305604935E-003;6.263120099902153E-003;
2.403166666666667E+009;1.670919656753540E-001;5.710881203413010E-002;-8.812698535621166E-003;6.486192811280489E-003;
2.403333333333334E+009;1.685791462659836E-001;5.489170178771019E-002;-8.595073595643044E-003;7.030775304883719E-003;
2.403500000000000E+009;1.701536327600479E-001;5.286119505763054E-002;-8.382611908018589E-003;7.277225609868765E-003;
2.403666666666667E+009;1.720912158489227E-001;5.077964067459106E-002;-8.007785305380821E-003;7.523529231548309E-003;
2.403833333333334E+009;1.736156046390533E-001;4.903176054358482E-002;-7.714436389505863E-003;7.840729318559170E-003;
2.404000000000000E+009;1.751097440719605E-001;4.711387678980827E-002;-7.170623168349266E-003;8.065245114266872E-003;
2.404166666666667E+009;1.769121587276459E-001;4.570131003856659E-002;-6.890994962304831E-003;8.584413677453995E-003;
2.404333333333334E+009;1.785756945610046E-001;4.421874880790710E-002;-6.337173283100128E-003;8.850447833538055E-003;
2.404500000000000E+009;1.800727993249893E-001;4.257922992110252E-002;-6.029636133462191E-003;8.918510749936104E-003;
2.404666666666667E+009;1.818348765373230E-001;4.160667583346367E-002;-5.691097583621740E-003;9.047709405422211E-003;
2.404833333333334E+009;1.832340806722641E-001;4.048217087984085E-002;-5.356720648705959E-003;9.170485660433769E-003;
2.405000000000000E+009;1.847681105136871E-001;3.985842317342758E-002;-4.840541630983353E-003;9.275515563786030E-003;
2.405166666666667E+009;1.862545013427734E-001;3.909526020288467E-002;-4.551054909825325E-003;9.377633221447468E-003;
2.405333333333334E+009;1.873928904533386E-001;3.867461532354355E-002;-3.956980071961880E-003;9.387926198542118E-003;
2.405500000000000E+009;1.889100074768066E-001;3.814391791820526E-002;-3.673071740195155E-003;9.503510780632496E-003;
2.405666666666667E+009;1.900350898504257E-001;3.766964748501778E-002;-3.279906231909990E-003;9.533642791211605E-003;
2.405833333333334E+009;1.912427544593811E-001;3.745030611753464E-002;-3.053001360967755E-003;9.587738662958145E-003;
2.406000000000000E+009;1.922647356987000E-001;3.725257888436317E-002;-2.543991664424539E-003;9.592663496732712E-003;
2.406166666666667E+009;1.932315081357956E-001;3.708007186651230E-002;-2.271773293614388E-003;9.485697373747826E-003;
2.406333333333334E+009;1.940367817878723E-001;3.712151199579239E-002;-1.847576815634966E-003;9.378272108733654E-003;
2.406500000000000E+009;1.948332637548447E-001;3.717176616191864E-002;-1.447903690859675E-003;9.553027339279652E-003;
2.406666666666667E+009;1.953766047954559E-001;3.719708696007729E-002;-1.262769452296197E-003;9.400893002748489E-003;
2.406833333333334E+009;1.958073973655701E-001;3.723554685711861E-002;-9.339520474895835E-004;9.327599778771401E-003;
2.407000000000000E+009;1.960783749818802E-001;3.746517002582550E-002;-5.186084890738130E-004;9.019476361572743E-003;
2.407166666666667E+009;1.964074671268463E-001;3.708885982632637E-002;-1.796687574824318E-004;9.002729319036007E-003;
2.407333333333334E+009;1.963318139314652E-001;3.727544471621513E-002;-5.795778270112351E-005;8.710286580026150E-003;
2.407500000000000E+009;1.963962018489838E-001;3.728662803769112E-002;4.188236780464649E-004;8.716128766536713E-003;
2.407666666666667E+009;1.962736994028091E-001;3.728064522147179E-002;4.515457840170711E-004;8.553561754524708E-003;
2.407833333333334E+009;1.958592683076859E-001;3.722799569368362E-002;6.973373820073903E-004;8.376959711313248E-003;
2.408000000000000E+009;1.956424117088318E-001;3.696127608418465E-002;9.242334635928273E-004;8.163495920598507E-003;
2.408166666666667E+009;1.951529085636139E-001;3.671048581600189E-002;1.058202935382724E-003;8.052575401961803E-003;
2.408333333333334E+009;1.946114301681519E-001;3.620179742574692E-002;1.265360740944743E-003;8.028790354728699E-003;
2.408500000000000E+009;1.938423514366150E-001;3.579832240939140E-002;1.271947636269033E-003;7.642099633812904E-003;
2.408666666666667E+009;1.931535303592682E-001;3.526087850332260E-002;1.426869304850698E-003;7.561819162219763E-003;
2.408833333333334E+009;1.924106627702713E-001;3.453080356121063E-002;1.454571844078600E-003;7.366454694420099E-003;
2.409000000000000E+009;1.914230883121491E-001;3.360555693507195E-002;1.689106458798051E-003;7.187504786998034E-003;
2.409166666666667E+009;1.904916763305664E-001;3.278524801135063E-002;1.581912627443671E-003;7.103837095201016E-003;
2.409333333333334E+009;1.895131170749664E-001;3.168758004903793E-002;1.707030809484422E-003;7.061253767460585E-003;
2.409500000000000E+009;1.884645074605942E-001;3.033394925296307E-002;1.764528919011354E-003;6.929829251021147E-003;
2.409666666666667E+009;1.872658133506775E-001;2.889405563473702E-002;1.738230348564684E-003;6.992616225033999E-003;
2.409833333333334E+009;1.863389611244202E-001;2.751172706484795E-002;1.907972968183458E-003;6.829220335930586E-003;
2.410000000000000E+009;1.853601634502411E-001;2.591542527079582E-002;2.040177816525102E-003;6.844101939350367E-003;
2.410166666666667E+009;1.842794567346573E-001;2.403554506599903E-002;1.948182820342481E-003;6.782741285860539E-003;
2.410333333333334E+009;1.833037286996841E-001;2.216674946248531E-002;2.080224687233567E-003;6.651645060628653E-003;
2.410500000000000E+009;1.823122501373291E-001;2.028979361057282E-002;2.085079671815038E-003;6.728280335664749E-003;
2.410666666666667E+009;1.814641952514648E-001;1.809514313936234E-002;2.275248989462853E-003;6.723414640873671E-003;
2.410833333333334E+009;1.809007078409195E-001;1.589903421700001E-002;2.219909336417913E-003;6.703043356537819E-003;
2.411000000000000E+009;1.800189912319183E-001;1.371478382498026E-002;2.320403698831797E-003;6.602493580430746E-003;
2.411166666666667E+009;1.793769598007202E-001;1.167140994220972E-002;2.512073842808604E-003;6.611034274101257E-003;
2.411333333333334E+009;1.788918823003769E-001;8.992719464004040E-003;2.598835155367851E-003;6.576675921678543E-003;
2.411500000000000E+009;1.784503608942032E-001;6.770148873329163E-003;2.705593826249242E-003;6.404707673937082E-003;
2.411666666666667E+009;1.783430725336075E-001;4.366415087133646E-003;2.869989257305861E-003;6.471668835729361E-003;
2.411833333333334E+009;1.779721677303314E-001;2.070280723273754E-003;2.913346514105797E-003;6.598467472940683E-003;
2.412000000000000E+009;1.780072599649429E-001;-6.713304901495576E-004;2.956400159746409E-003;6.508027203381062E-003;
2.412166666666667E+009;1.781239211559296E-001;-2.889901865273714E-003;3.166379174217582E-003;6.409886293113232E-003;
2.412333333333334E+009;1.782420426607132E-001;-5.328921135514975E-003;3.392027923837304E-003;6.344437133520842E-003;
2.412500000000000E+009;1.788851320743561E-001;-7.819004356861115E-003;3.336639609187841E-003;6.199941504746676E-003;
2.412666666666667E+009;1.791056990623474E-001;-1.021108869463205E-002;3.485826076939702E-003;6.381991785019636E-003;
2.412833333333334E+009;1.798642873764038E-001;-1.259911339730024E-002;3.700922708958387E-003;6.387982517480850E-003;
2.413000000000000E+009;1.806430667638779E-001;-1.497570425271988E-002;3.802321152761579E-003;6.426092237234116E-003;
2.413166666666667E+009;1.813422888517380E-001;-1.719704829156399E-002;3.943954594433308E-003;6.422897800803185E-003;
2.413333333333334E+009;1.823828369379044E-001;-1.952129602432251E-002;4.337049089372158E-003;6.341106258332729E-003;
2.413500000000000E+009;1.833850294351578E-001;-2.165416441857815E-002;4.343329928815365E-003;6.373584270477295E-003;
2.413666666666667E+009;1.845991164445877E-001;-2.374702505767345E-002;4.460055381059647E-003;6.391260307282209E-003;
2.413833333333334E+009;1.856327950954437E-001;-2.575561031699181E-002;4.704179707914591E-003;6.412670481950045E-003;
2.414000000000000E+009;1.867193877696991E-001;-2.768958546221256E-002;5.003544967621565E-003;6.252902559936047E-003;
2.414166666666667E+009;1.879192143678665E-001;-2.953870594501495E-002;5.261329934000969E-003;6.310647819191217E-003;
2.414333333333334E+009;1.889103949069977E-001;-3.135875239968300E-002;5.676046479493380E-003;6.167656276375055E-003;
2.414500000000000E+009;1.902640461921692E-001;-3.295359387993813E-002;5.784289445728064E-003;6.097781006246805E-003;
2.414666666666667E+009;1.913163214921951E-001;-3.433586657047272E-002;5.972244776785374E-003;6.011522375047207E-003;
2.414833333333334E+009;1.926414072513580E-001;-3.567430377006531E-002;6.278912536799908E-003;5.867401137948036E-003;
2.415000000000000E+009;1.936460733413696E-001;-3.681281581521034E-002;6.506248842924833E-003;5.665481556206942E-003;
2.415166666666667E+009;1.948382258415222E-001;-3.794392198324204E-002;6.774826906621456E-003;5.546043161302805E-003;
2.415333333333334E+009;1.960733979940414E-001;-3.882047533988953E-002;7.124800700694323E-003;5.292005371302366E-003;
2.415500000000000E+009;1.970840394496918E-001;-3.953459486365318E-002;7.266425527632237E-003;5.084403790533543E-003;
2.415666666666667E+009;1.980461925268173E-001;-4.029699042439461E-002;7.420926354825497E-003;4.991794936358929E-003;
2.415833333333334E+009;1.989084929227829E-001;-4.092620685696602E-002;7.691453676670790E-003;4.784779157489538E-003;
2.416000000000000E+009;1.997113674879074E-001;-4.150699079036713E-002;8.005563169717789E-003;4.554387181997299E-003;
2.416166666666667E+009;2.003584504127502E-001;-4.199292138218880E-002;8.266083896160126E-003;4.317947663366795E-003;
2.416333333333334E+009;2.009653598070145E-001;-4.221367835998535E-002;8.447713218629360E-003;3.910817205905914E-003;
2.416500000000000E+009;2.012896686792374E-001;-4.244006425142288E-002;8.618176914751530E-003;3.686625044792891E-003;
2.416666666666667E+009;2.016934752464294E-001;-4.278067499399185E-002;8.844625204801559E-003;3.383030882105231E-003;
2.416833333333334E+009;2.018163949251175E-001;-4.275864362716675E-002;9.057748131453991E-003;3.022703807801008E-003;
2.417000000000000E+009;2.018194794654846E-001;-4.276152700185776E-002;9.092424996197224E-003;2.713153371587396E-003;
2.417166666666667E+009;2.016290426254273E-001;-4.273354262113571E-002;9.347109124064446E-003;2.369946800172329E-003;
2.417333333333334E+009;2.014556527137756E-001;-4.244242236018181E-002;9.365770034492016E-003;1.931806327775121E-003;
2.417500000000000E+009;2.010339945554733E-001;-4.249939695000649E-002;9.398429654538631E-003;1.506246742792428E-003;
2.417666666666667E+009;2.005473226308823E-001;-4.218944534659386E-002;9.557783603668213E-003;1.084287883713841E-003;
2.417833333333334E+009;2.002174407243729E-001;-4.203247278928757E-002;9.563419967889786E-003;8.809231803752482E-004;
2.418000000000000E+009;1.994145363569260E-001;-4.173854365944862E-002;9.487717412412167E-003;5.849173758178949E-004;
2.418166666666667E+009;1.986913233995438E-001;-4.160317406058312E-002;9.625982493162155E-003;1.059534333762713E-004;
2.418333333333334E+009;1.978195309638977E-001;-4.147083684802055E-002;9.459691122174263E-003;-9.655048052081838E-005;
2.418500000000000E+009;1.968088150024414E-001;-4.143153876066208E-002;9.521167725324631E-003;-4.343137843534350E-004;
2.418666666666667E+009;1.958591789007187E-001;-4.127351567149162E-002;9.443428367376328E-003;-6.616396713070571E-004;
2.418833333333334E+009;1.946621984243393E-001;-4.149706661701202E-002;9.231414645910263E-003;-1.262288773432374E-003;
2.419000000000000E+009;1.933438926935196E-001;-4.173270612955093E-002;9.176821447908878E-003;-1.383655471727252E-003;
2.419166666666667E+009;1.922246366739273E-001;-4.201960936188698E-002;9.162359870970249E-003;-1.671510632149875E-003;
2.419333333333334E+009;1.906571686267853E-001;-4.246122017502785E-002;8.957385085523129E-003;-1.963344402611256E-003;
2.419500000000000E+009;1.892708837985992E-001;-4.292570799589157E-002;8.969645015895367E-003;-2.057226607576013E-003;
2.419666666666667E+009;1.877832114696503E-001;-4.375650733709335E-002;8.879313245415688E-003;-2.262892900034785E-003;
2.419833333333334E+009;1.862455457448959E-001;-4.437660798430443E-002;8.616300299763680E-003;-2.697956981137395E-003;
2.420000000000000E+009;1.846937686204910E-001;-4.517838731408119E-002;8.580951951444149E-003;-2.806503092870116E-003;
2.420166666666667E+009;1.831393688917160E-001;-4.616113379597664E-002;8.472761139273644E-003;-3.048476297408342E-003;
2.420333333333334E+009;1.814344525337219E-001;-4.737104475498200E-002;8.386686444282532E-003;-3.316722810268402E-003;
2.420500000000000E+009;1.800329536199570E-001;-4.871881008148193E-002;8.241880685091019E-003;-3.432644065469503E-003;
2.420666666666667E+009;1.783560216426849E-001;-4.989737644791603E-002;8.129952475428581E-003;-3.823483595624566E-003;
2.420833333333334E+009;1.767521053552628E-001;-5.143366008996964E-002;8.036263287067413E-003;-4.021353088319302E-003;
2.421000000000000E+009;1.753568202257156E-001;-5.297148227691650E-002;7.973124273121357E-003;-4.403439350426197E-003;
2.421166666666667E+009;1.740230917930603E-001;-5.472067743539810E-002;7.833438925445080E-003;-4.519870970398188E-003;
2.421333333333334E+009;1.725840121507645E-001;-5.628534033894539E-002;7.596156559884548E-003;-4.815159831196070E-003;
2.421500000000000E+009;1.711904555559158E-001;-5.817845463752747E-002;7.398369256407023E-003;-4.960539285093546E-003;
2.421666666666667E+009;1.698831617832184E-001;-5.991887673735619E-002;7.331880740821362E-003;-5.224005319178104E-003;
2.421833333333334E+009;1.688971817493439E-001;-6.176086142659187E-002;7.137073669582605E-003;-5.530904978513718E-003;
2.422000000000000E+009;1.677532941102982E-001;-6.381052732467651E-002;6.904045585542917E-003;-5.679141730070114E-003;
2.422166666666667E+009;1.670624762773514E-001;-6.598212569952011E-002;6.800055969506502E-003;-5.843169987201691E-003;
2.422333333333334E+009;1.660539060831070E-001;-6.811718642711639E-002;6.425512488931418E-003;-5.963950417935848E-003;
2.422500000000000E+009;1.652886718511581E-001;-6.998668611049652E-002;6.146416533738375E-003;-6.146057508885860E-003;
2.422666666666667E+009;1.646695733070374E-001;-7.200763374567032E-002;5.864039063453674E-003;-6.264520343393087E-003;
2.422833333333334E+009;1.641453057527542E-001;-7.387929409742355E-002;5.705227609723806E-003;-6.744614802300930E-003;
2.423000000000000E+009;1.636051386594772E-001;-7.610684633255005E-002;5.250894930213690E-003;-6.597435101866722E-003;
2.423166666666667E+009;1.632804274559021E-001;-7.814726233482361E-002;5.177722778171301E-003;-6.734281778335571E-003;
2.423333333333334E+009;1.629597246646881E-001;-7.994703203439713E-002;4.890488460659981E-003;-6.622587330639362E-003;
2.423500000000000E+009;1.629202365875244E-001;-8.174569159746170E-002;4.660121165215969E-003;-6.767823826521635E-003;
2.423666666666667E+009;1.631090492010117E-001;-8.375926315784454E-002;4.193175584077835E-003;-6.975161843001843E-003;
2.423833333333334E+009;1.628756225109100E-001;-8.553015440702438E-002;4.088574089109898E-003;-6.778529379516840E-003;
2.424000000000000E+009;1.630732119083405E-001;-8.733438700437546E-002;3.774640383198857E-003;-7.016008254140616E-003;
2.424166666666667E+009;1.630816161632538E-001;-8.888143301010132E-002;3.634328488260508E-003;-6.958965212106705E-003;
2.424333333333334E+009;1.633347868919373E-001;-9.038049727678299E-002;3.460058476775885E-003;-7.154066115617752E-003;
2.424500000000000E+009;1.636871099472046E-001;-9.213177114725113E-002;3.137147519737482E-003;-7.051282096654177E-003;
2.424666666666667E+009;1.639361083507538E-001;-9.345072507858276E-002;2.853325568139553E-003;-6.890716962516308E-003;
2.424833333333334E+009;1.644546985626221E-001;-9.470526874065399E-002;2.992324531078339E-003;-6.852516904473305E-003;
2.425000000000000E+009;1.648824959993362E-001;-9.595678001642227E-002;2.646634122356772E-003;-6.925547495484352E-003;
2.425166666666667E+009;1.651854217052460E-001;-9.700729697942734E-002;2.513627754524350E-003;-7.024772930890322E-003;
2.425333333333334E+009;1.654357761144638E-001;-9.793916344642639E-002;2.335230587050319E-003;-6.924264598637819E-003;
2.425500000000000E+009;1.659118235111237E-001;-9.895974397659302E-002;2.242957009002566E-003;-7.024292834103108E-003;
2.425666666666667E+009;1.662657260894775E-001;-9.944096952676773E-002;2.000760287046433E-003;-7.055372465401888E-003;
2.425833333333334E+009;1.665576249361038E-001;-1.004248186945915E-001;1.987127587199211E-003;-6.968809291720390E-003;
2.426000000000000E+009;1.670901775360107E-001;-1.007915511727333E-001;1.734082470647991E-003;-7.077177986502647E-003;
2.426166666666667E+009;1.673866212368012E-001;-1.013778597116470E-001;1.584660727530718E-003;-6.951279006898403E-003;
2.426333333333334E+009;1.675236225128174E-001;-1.017715781927109E-001;1.459303544834256E-003;-7.142356131225824E-003;
2.426500000000000E+009;1.678748428821564E-001;-1.020581200718880E-001;1.396771054714918E-003;-7.061570882797241E-003;
2.426666666666667E+009;1.681019663810730E-001;-1.023018285632134E-001;1.235211035236716E-003;-7.168011739850044E-003;
2.426833333333334E+009;1.682857125997543E-001;-1.025822386145592E-001;9.840588318184018E-004;-7.113345433026552E-003;
2.427000000000000E+009;1.682724803686142E-001;-1.027767509222031E-001;7.927262922748923E-004;-7.186205126345158E-003;
2.427166666666667E+009;1.683420240879059E-001;-1.028437614440918E-001;7.197643863037229E-004;-7.270576898008585E-003;
2.427333333333334E+009;1.682003438472748E-001;-1.031859740614891E-001;4.957357887178659E-004;-7.341615390032530E-003;
2.427500000000000E+009;1.679657250642777E-001;-1.033166050910950E-001;4.267034819349647E-004;-7.216369267553091E-003;
2.427666666666667E+009;1.676588356494904E-001;-1.032557711005211E-001;2.132954250555486E-004;-7.254937663674355E-003;
2.427833333333334E+009;1.671844571828842E-001;-1.033760085701942E-001;5.760919157182798E-005;-7.313173729926348E-003;
