# Version 1.00
#
freq[Hz];re:Trc1_S11;im:Trc1_S11;re:Trc2_S21;im:Trc2_S21;
2.400000000000000E+009;1.554669141769409E-001;1.066491156816483E-001;-9.942761622369289E-003;-5.342056974768639E-004;
2.400166666666667E+009;1.552784293889999E-001;1.043969392776489E-001;-1.003500260412693E-002;-2.738391631282866E-004;
2.400333333333334E+009;1.554258763790131E-001;1.019691973924637E-001;-1.013911794871092E-002;6.569127435795963E-005;
2.400500000000000E+009;1.552109271287918E-001;9.924916923046112E-002;-1.038518920540810E-002;4.180624382570386E-004;
2.400666666666667E+009;1.553381681442261E-001;9.686451405286789E-002;-1.030289288610220E-002;8.412773604504764E-004;
2.400833333333334E+009;1.552286595106125E-001;9.387408196926117E-002;-1.046426873654127E-002;1.181815052405000E-003;
2.401000000000000E+009;1.555461138486862E-001;9.104703366756439E-002;-1.042925287038088E-002;1.596536138094962E-003;
2.401166666666667E+009;1.555258184671402E-001;8.833490312099457E-002;-1.040029339492321E-002;1.869727275334299E-003;
2.401333333333334E+009;1.559319645166397E-001;8.569356054067612E-002;-1.053608488291502E-002;2.254321007058024E-003;
2.401500000000000E+009;1.564134806394577E-001;8.268391340970993E-002;-1.025607716292143E-002;2.771714702248573E-003;
2.401666666666667E+009;1.568324416875839E-001;7.987008243799210E-002;-1.037827506661415E-002;3.160394262522459E-003;
2.401833333333334E+009;1.573338508605957E-001;7.708313316106796E-002;-1.036049984395504E-002;3.487071720883250E-003;
2.402000000000000E+009;1.582696586847305E-001;7.438230514526367E-002;-1.014366466552019E-002;3.982251044362783E-003;
2.402166666666667E+009;1.591820865869522E-001;7.186610996723175E-002;-9.985731914639473E-003;4.179573152214289E-003;
2.402333333333334E+009;1.600637286901474E-001;6.909924000501633E-002;-1.000837516039610E-002;4.653422161936760E-003;
2.402500000000000E+009;1.613187044858933E-001;6.661900877952576E-002;-9.695022366940975E-003;5.136908032000065E-003;
2.402666666666667E+009;1.624596267938614E-001;6.431959569454193E-002;-9.450794197618961E-003;5.418558139353991E-003;
2.402833333333334E+009;1.638126820325851E-001;6.187054887413979E-002;-9.287799708545208E-003;5.832358263432980E-003;
2.403000000000000E+009;1.653683036565781E-001;5.931395664811134E-002;-9.235754609107971E-003;6.174237933009863E-003;
2.403166666666667E+009;1.669504493474960E-001;5.740287899971008E-002;-8.900412358343601E-003;6.537029054015875E-003;
2.403333333333334E+009;1.684543788433075E-001;5.499653890728951E-002;-8.636193349957466E-003;6.847842130810022E-003;
2.403500000000000E+009;1.701503098011017E-001;5.282460898160934E-002;-8.275702595710754E-003;7.332510314881802E-003;
2.403666666666667E+009;1.718567162752152E-001;5.104356631636620E-002;-7.986403070390225E-003;7.598394993692637E-003;
2.403833333333334E+009;1.736142486333847E-001;4.914470389485359E-002;-7.522905711084604E-003;7.943295873701572E-003;
2.404000000000000E+009;1.751697957515717E-001;4.731964692473412E-002;-7.286008913069964E-003;8.344595320522785E-003;
2.404166666666667E+009;1.769841760396957E-001;4.572635516524315E-002;-6.911002099514008E-003;8.522022515535355E-003;
2.404333333333334E+009;1.785269677639008E-001;4.426221549510956E-002;-6.431503221392632E-003;8.664877153933048E-003;
2.404500000000000E+009;1.800194531679153E-001;4.279569908976555E-002;-6.036824546754360E-003;8.868420496582985E-003;
2.404666666666667E+009;1.817337572574616E-001;4.162565246224403E-002;-5.699664354324341E-003;9.026150219142437E-003;
2.404833333333334E+009;1.833948194980621E-001;4.053447395563126E-002;-5.356381647288799E-003;9.142930619418621E-003;
2.405000000000000E+009;1.847715526819229E-001;3.987373411655426E-002;-4.910171963274479E-003;9.332982823252678E-003;
2.405166666666667E+009;1.861007958650589E-001;3.907904773950577E-002;-4.473189823329449E-003;9.440115652978420E-003;
2.405333333333334E+009;1.876666396856308E-001;3.860408440232277E-002;-4.231022205203772E-003;9.417967870831490E-003;
2.405500000000000E+009;1.890612542629242E-001;3.807341307401657E-002;-3.631587140262127E-003;9.557667188346386E-003;
2.405666666666667E+009;1.900591254234314E-001;3.770884498953819E-002;-3.216382814571261E-003;9.462214075028896E-003;
2.405833333333334E+009;1.913098245859146E-001;3.746259957551956E-002;-2.891881857067347E-003;9.548164904117584E-003;
2.406000000000000E+009;1.922008842229843E-001;3.733071684837341E-002;-2.527903066948056E-003;9.484352543950081E-003;
2.406166666666667E+009;1.932545006275177E-001;3.705858066678047E-002;-2.321586245670915E-003;9.524158202111721E-003;
2.406333333333334E+009;1.939910799264908E-001;3.704196587204933E-002;-1.896551460959017E-003;9.561636485159397E-003;
2.406500000000000E+009;1.947968006134033E-001;3.711199387907982E-002;-1.550512621179223E-003;9.483397938311100E-003;
2.406666666666667E+009;1.953248679637909E-001;3.719071671366692E-002;-1.167627749964595E-003;9.267809800803661E-003;
2.406833333333334E+009;1.958739161491394E-001;3.709872066974640E-002;-8.337335311807692E-004;9.277770295739174E-003;
2.407000000000000E+009;1.961365342140198E-001;3.726281598210335E-002;-5.947457975707948E-004;9.060751646757126E-003;
2.407166666666667E+009;1.964916586875916E-001;3.720840811729431E-002;-2.544242306612432E-004;8.800585754215717E-003;
2.407333333333334E+009;1.964627355337143E-001;3.737132996320725E-002;-3.694054612424225E-005;8.958693593740463E-003;
2.407500000000000E+009;1.962436139583588E-001;3.745063394308090E-002;1.227641041623429E-004;8.685939945280552E-003;
2.407666666666667E+009;1.962926387786865E-001;3.719336912035942E-002;6.353761418722570E-004;8.609484881162643E-003;
2.407833333333334E+009;1.958200037479401E-001;3.708976507186890E-002;7.847248343750835E-004;8.320173248648644E-003;
2.408000000000000E+009;1.957662701606751E-001;3.704273700714111E-002;9.160856716334820E-004;8.187374100089073E-003;
2.408166666666667E+009;1.950307488441467E-001;3.667126223444939E-002;1.037082867696881E-003;8.124592714011669E-003;
2.408333333333334E+009;1.946405023336411E-001;3.615700453519821E-002;1.186377136036754E-003;7.861550897359848E-003;
2.408500000000000E+009;1.938701719045639E-001;3.590396791696549E-002;1.237619086168706E-003;7.726447191089392E-003;
2.408666666666667E+009;1.932630389928818E-001;3.521176427602768E-002;1.430922537110746E-003;7.714474573731422E-003;
2.408833333333334E+009;1.924311965703964E-001;3.452256694436073E-002;1.416520215570927E-003;7.457968778908253E-003;
2.409000000000000E+009;1.915415823459625E-001;3.359039872884750E-002;1.740597886964679E-003;7.324326783418655E-003;
2.409166666666667E+009;1.904174089431763E-001;3.271091356873512E-002;1.774772070348263E-003;7.296625524759293E-003;
2.409333333333334E+009;1.896847337484360E-001;3.175007924437523E-002;1.704027992673218E-003;6.987999193370342E-003;
2.409500000000000E+009;1.883961558341980E-001;3.031453862786293E-002;1.708765979856253E-003;7.082044612616301E-003;
2.409666666666667E+009;1.874643266201019E-001;2.896650508046150E-002;1.872755354270339E-003;6.978366058319807E-003;
2.409833333333334E+009;1.864506602287293E-001;2.753982879221439E-002;1.808244385756552E-003;6.917729042470455E-003;
2.410000000000000E+009;1.854570060968399E-001;2.590023167431355E-002;1.996588893234730E-003;6.788828875869513E-003;
2.410166666666667E+009;1.843394637107849E-001;2.407649718225002E-002;1.897446461953223E-003;6.766054779291153E-003;
2.410333333333334E+009;1.834645420312882E-001;2.221786230802536E-002;1.946036238223314E-003;6.734833121299744E-003;
2.410500000000000E+009;1.822297275066376E-001;2.032657898962498E-002;2.119525102898479E-003;6.652696989476681E-003;
2.410666666666667E+009;1.815166175365448E-001;1.806003786623478E-002;2.259397879242897E-003;6.606322247534990E-003;
2.410833333333334E+009;1.808384209871292E-001;1.594241149723530E-002;2.285889117047191E-003;6.777019239962101E-003;
2.411000000000000E+009;1.800020933151245E-001;1.367176603525877E-002;2.488557482138276E-003;6.642996799200773E-003;
2.411166666666667E+009;1.794788837432861E-001;1.155749242752791E-002;2.595213241875172E-003;6.629743147641420E-003;
2.411333333333334E+009;1.788610965013504E-001;9.004190564155579E-003;2.710055792704225E-003;6.654914002865553E-003;
2.411500000000000E+009;1.783682256937027E-001;6.647263653576374E-003;2.793121384456754E-003;6.533515639603138E-003;
2.411666666666667E+009;1.783861815929413E-001;4.278304986655712E-003;2.961986931040883E-003;6.564292591065168E-003;
2.411833333333334E+009;1.780893206596375E-001;2.062014304101467E-003;2.955677453428507E-003;6.548567675054073E-003;
2.412000000000000E+009;1.780815869569778E-001;-7.074004388414323E-004;2.988279564306140E-003;6.342560984194279E-003;
2.412166666666667E+009;1.779849976301193E-001;-2.734350506216288E-003;3.129560267552733E-003;6.488957908004522E-003;
2.412333333333334E+009;1.783138960599899E-001;-5.481764674186707E-003;3.379046218469739E-003;6.433074362576008E-003;
2.412500000000000E+009;1.788058280944824E-001;-7.861567661166191E-003;3.325883066281676E-003;6.251789629459381E-003;
2.412666666666667E+009;1.793121397495270E-001;-1.042380556464195E-002;3.531567519530654E-003;6.446905899792910E-003;
2.412833333333334E+009;1.800323277711868E-001;-1.250138971954584E-002;3.677219850942493E-003;6.443010177463293E-003;
2.413000000000000E+009;1.807972043752670E-001;-1.494301855564117E-002;3.883244935423136E-003;6.461781449615955E-003;
2.413166666666667E+009;1.814630478620529E-001;-1.710512861609459E-002;3.937567118555307E-003;6.400479469448328E-003;
2.413333333333334E+009;1.827083230018616E-001;-1.941412873566151E-002;4.119974095374346E-003;6.584800779819489E-003;
2.413500000000000E+009;1.835300177335739E-001;-2.186903357505798E-002;4.424104932695627E-003;6.354908458888531E-003;
2.413666666666667E+009;1.844672858715057E-001;-2.380564063787460E-002;4.618897568434477E-003;6.408160552382469E-003;
2.413833333333334E+009;1.855658739805222E-001;-2.582656033337116E-002;4.777772817760706E-003;6.299241445958614E-003;
2.414000000000000E+009;1.866828352212906E-001;-2.768008969724178E-002;5.005048587918282E-003;6.285632494837046E-003;
2.414166666666667E+009;1.879518777132034E-001;-2.952722832560539E-002;5.196518264710903E-003;6.269057746976614E-003;
2.414333333333334E+009;1.888464391231537E-001;-3.135446459054947E-002;5.430115852504969E-003;6.287777330726385E-003;
2.414500000000000E+009;1.903501749038696E-001;-3.283946961164475E-002;5.760392174124718E-003;6.088261026889086E-003;
2.414666666666667E+009;1.913238912820816E-001;-3.431332111358643E-002;6.021369714289904E-003;6.014070007950068E-003;
2.414833333333334E+009;1.926354914903641E-001;-3.582466766238213E-002;6.312623620033264E-003;5.711320787668228E-003;
2.415000000000000E+009;1.936471611261368E-001;-3.700486943125725E-002;6.395039614289999E-003;5.818211007863283E-003;
2.415166666666667E+009;1.948799341917038E-001;-3.786457702517510E-002;6.746856030076742E-003;5.547329783439636E-003;
2.415333333333334E+009;1.960336416959763E-001;-3.886324167251587E-002;6.949264090508223E-003;5.428771954029799E-003;
2.415500000000000E+009;1.970383822917938E-001;-3.952034190297127E-002;7.238191552460194E-003;5.208123475313187E-003;
2.415666666666667E+009;1.981004029512405E-001;-4.039835184812546E-002;7.501666434109211E-003;4.974675364792347E-003;
2.415833333333334E+009;1.989256292581558E-001;-4.097633436322212E-002;7.854545488953590E-003;4.804762545973063E-003;
2.416000000000000E+009;1.996964663267136E-001;-4.146256297826767E-002;8.058130741119385E-003;4.475186113268137E-003;
2.416166666666667E+009;2.002760916948319E-001;-4.201404005289078E-002;8.298438042402268E-003;4.301726352423430E-003;
2.416333333333334E+009;2.010072618722916E-001;-4.226260259747505E-002;8.529389277100563E-003;3.915392793715000E-003;
2.416500000000000E+009;2.013855427503586E-001;-4.246449470520020E-002;8.813088759779930E-003;3.792487783357501E-003;
2.416666666666667E+009;2.016910463571549E-001;-4.274135828018189E-002;8.905061520636082E-003;3.334048902615905E-003;
2.416833333333334E+009;2.018122076988220E-001;-4.278541728854179E-002;9.156402200460434E-003;3.008581232279539E-003;
2.417000000000000E+009;2.019192129373550E-001;-4.292024299502373E-002;9.171342477202416E-003;2.789912745356560E-003;
2.417166666666667E+009;2.016172558069229E-001;-4.289758205413818E-002;9.429785422980785E-003;2.301505999639630E-003;
2.417333333333334E+009;2.014814913272858E-001;-4.255107045173645E-002;9.374740533530712E-003;2.050109673291445E-003;
2.417500000000000E+009;2.010980546474457E-001;-4.254663735628128E-002;9.450517594814301E-003;1.613253029063344E-003;
2.417666666666667E+009;2.006198614835739E-001;-4.230909049510956E-002;9.543572552502155E-003;1.161841326393187E-003;
2.417833333333334E+009;2.001507729291916E-001;-4.210344702005386E-002;9.589931927621365E-003;7.493873708881438E-004;
2.418000000000000E+009;1.995580941438675E-001;-4.195490479469299E-002;9.488916024565697E-003;4.933132440783083E-004;
2.418166666666667E+009;1.987410038709641E-001;-4.170096665620804E-002;9.665081277489662E-003;2.873523626476526E-004;
2.418333333333334E+009;1.977845877408981E-001;-4.159831255674362E-002;9.635092690587044E-003;-1.518561039119959E-004;
2.418500000000000E+009;1.968077421188355E-001;-4.143276065587997E-002;9.465574286878109E-003;-5.476256483234465E-004;
2.418666666666667E+009;1.959452480077744E-001;-4.130215942859650E-002;9.369279257953167E-003;-8.443408878520131E-004;
2.418833333333334E+009;1.946688592433929E-001;-4.163693636655808E-002;9.320044890046120E-003;-1.096100779250264E-003;
2.419000000000000E+009;1.933393329381943E-001;-4.169796779751778E-002;9.314627386629582E-003;-1.491096918471158E-003;
2.419166666666667E+009;1.920841336250305E-001;-4.203657805919647E-002;9.194666519761086E-003;-1.553919282741845E-003;
2.419333333333334E+009;1.906691789627075E-001;-4.242078587412834E-002;9.110759012401104E-003;-1.959169050678611E-003;
2.419500000000000E+009;1.892765462398529E-001;-4.296719282865524E-002;8.903718553483486E-003;-2.188916085287929E-003;
2.419666666666667E+009;1.879049986600876E-001;-4.378439858555794E-002;8.875709027051926E-003;-2.530181547626853E-003;
2.419833333333334E+009;1.861349493265152E-001;-4.435185715556145E-002;8.717518299818039E-003;-2.727414248511195E-003;
2.420000000000000E+009;1.846379488706589E-001;-4.532541334629059E-002;8.619180880486965E-003;-2.991758054122329E-003;
2.420166666666667E+009;1.831675171852112E-001;-4.636171087622643E-002;8.454225026071072E-003;-3.169220173731446E-003;
2.420333333333334E+009;1.815843135118485E-001;-4.745179414749146E-002;8.420799858868122E-003;-3.187563270330429E-003;
2.420500000000000E+009;1.800632476806641E-001;-4.882322996854782E-002;8.367553353309631E-003;-3.533868119120598E-003;
2.420666666666667E+009;1.782997250556946E-001;-4.979448020458221E-002;8.172046393156052E-003;-3.845613449811935E-003;
2.420833333333334E+009;1.768499463796616E-001;-5.140029639005661E-002;8.114860393106937E-003;-4.029594361782074E-003;
2.421000000000000E+009;1.754673421382904E-001;-5.291784927248955E-002;8.021025918424130E-003;-4.151156172156334E-003;
2.421166666666667E+009;1.739801317453384E-001;-5.474688485264778E-002;7.754595484584570E-003;-4.538570996373892E-003;
2.421333333333334E+009;1.724043935537338E-001;-5.625332146883011E-002;7.621752563863993E-003;-4.707599524408579E-003;
2.421500000000000E+009;1.710212677717209E-001;-5.810252577066422E-002;7.424676325172186E-003;-5.086218938231468E-003;
2.421666666666667E+009;1.701002269983292E-001;-5.994535982608795E-002;7.232347503304482E-003;-5.101009737700224E-003;
2.421833333333334E+009;1.690310537815094E-001;-6.201015412807465E-002;7.069356273859739E-003;-5.398911889642477E-003;
2.422000000000000E+009;1.678544133901596E-001;-6.386791914701462E-002;6.936380174010992E-003;-5.734642501920462E-003;
2.422166666666667E+009;1.670237779617310E-001;-6.596322357654572E-002;6.647828966379166E-003;-5.694911349564791E-003;
2.422333333333334E+009;1.659121364355087E-001;-6.812381744384766E-002;6.394294556230307E-003;-6.110983435064554E-003;
2.422500000000000E+009;1.652063876390457E-001;-7.000078260898590E-002;6.182142067700625E-003;-6.138452328741550E-003;
2.422666666666667E+009;1.647193878889084E-001;-7.205988466739655E-002;5.891176406294107E-003;-6.316880229860544E-003;
2.422833333333334E+009;1.640131771564484E-001;-7.412447780370712E-002;5.526795517653227E-003;-6.522117648273706E-003;
2.423000000000000E+009;1.635910570621491E-001;-7.616236805915833E-002;5.322648677974939E-003;-6.741438992321491E-003;
2.423166666666667E+009;1.632175445556641E-001;-7.817155867815018E-002;5.054422188550234E-003;-6.735380273312330E-003;
2.423333333333334E+009;1.630190461874008E-001;-8.011353760957718E-002;4.789698868989945E-003;-6.790244020521641E-003;
2.423500000000000E+009;1.630105674266815E-001;-8.171059191226959E-002;4.543758463114500E-003;-6.974554620683193E-003;
2.423666666666667E+009;1.629219651222229E-001;-8.391404896974564E-002;4.197203088551760E-003;-6.897444371134043E-003;
2.423833333333334E+009;1.629155427217484E-001;-8.553782850503922E-002;3.936030901968479E-003;-6.891688331961632E-003;
2.424000000000000E+009;1.630735844373703E-001;-8.727557957172394E-002;3.891063155606389E-003;-6.994976196438074E-003;
2.424166666666667E+009;1.631861478090286E-001;-8.895844966173172E-002;3.557619405910373E-003;-6.940132007002831E-003;
2.424333333333334E+009;1.633308827877045E-001;-9.044352173805237E-002;3.508477937430143E-003;-7.104781456291676E-003;
2.424500000000000E+009;1.636911332607269E-001;-9.225454181432724E-002;3.168176626786590E-003;-7.077930960804224E-003;
2.424666666666667E+009;1.639472395181656E-001;-9.351800382137299E-002;3.133963560685515E-003;-7.118761073797941E-003;
2.424833333333334E+009;1.644879877567291E-001;-9.471582621335983E-002;2.736148657277226E-003;-7.042040117084980E-003;
2.425000000000000E+009;1.647424101829529E-001;-9.597180783748627E-002;2.635523909702897E-003;-6.966683082282543E-003;
2.425166666666667E+009;1.651481986045837E-001;-9.697683900594711E-002;2.443400677293539E-003;-7.034200243651867E-003;
2.425333333333334E+009;1.655772775411606E-001;-9.800945222377777E-002;2.326550427824259E-003;-7.010048255324364E-003;
2.425500000000000E+009;1.658654212951660E-001;-9.886698424816132E-002;1.979466993361712E-003;-7.024582475423813E-003;
2.425666666666667E+009;1.663116514682770E-001;-9.964599460363388E-002;1.954017207026482E-003;-6.922003347426653E-003;
2.425833333333334E+009;1.665625125169754E-001;-1.003757044672966E-001;1.877891016192734E-003;-7.064500357955694E-003;
2.426000000000000E+009;1.668647527694702E-001;-1.007931977510452E-001;1.876221736893058E-003;-6.987751927226782E-003;
2.426166666666667E+009;1.673558950424194E-001;-1.013403758406639E-001;1.639754162169993E-003;-7.048161700367928E-003;
2.426333333333334E+009;1.674050837755203E-001;-1.016769111156464E-001;1.507635810412467E-003;-7.116610649973154E-003;
2.426500000000000E+009;1.678173840045929E-001;-1.022400110960007E-001;1.415675971657038E-003;-7.016446907073259E-003;
2.426666666666667E+009;1.680438220500946E-001;-1.024105101823807E-001;9.746775031089783E-004;-7.134908344596624E-003;
2.426833333333334E+009;1.683338135480881E-001;-1.025111749768257E-001;1.095310435630381E-003;-7.164365146309137E-003;
2.427000000000000E+009;1.681650876998901E-001;-1.027339696884155E-001;9.377381647937000E-004;-7.187535054981709E-003;
2.427166666666667E+009;1.682061105966568E-001;-1.028679385781288E-001;5.596847040578723E-004;-7.272475399076939E-003;
2.427333333333334E+009;1.680824011564255E-001;-1.031590923666954E-001;4.229814221616834E-004;-7.308570668101311E-003;
2.427500000000000E+009;1.679168045520783E-001;-1.033810153603554E-001;2.990883076563478E-004;-7.300914265215397E-003;
2.427666666666667E+009;1.675614863634110E-001;-1.033192276954651E-001;1.139665837399662E-004;-7.266420405358076E-003;
2.427833333333334E+009;1.672669053077698E-001;-1.034826263785362E-001;-5.897539449506439E-005;-7.281896192580462E-003;
