# Version 1.00
#
freq[Hz];re:Trc1_S11;im:Trc1_S11;re:Trc2_S21;im:Trc2_S21;
2.400000000000000E+009;1.552806347608566E-001;1.065543293952942E-001;-9.821832180023193E-003;-5.576444091275334E-004;
2.400166666666667E+009;1.550284624099731E-001;1.041426509618759E-001;-1.008527912199497E-002;-2.409387379884720E-004;
2.400333333333334E+009;1.549742817878723E-001;1.016727238893509E-001;-1.023060921579599E-002;3.497093712212518E-005;
2.400500000000000E+009;1.549766659736633E-001;9.908191114664078E-002;-1.016943715512753E-002;3.531728289090097E-004;
2.400666666666667E+009;1.552052199840546E-001;9.663815796375275E-002;-1.028340775519610E-002;8.164167520590127E-004;
2.400833333333334E+009;1.552417278289795E-001;9.373748302459717E-002;-1.054676994681358E-002;1.105246599763632E-003;
2.401000000000000E+009;1.553563475608826E-001;9.101913869380951E-002;-1.040851324796677E-002;1.373100676573813E-003;
2.401166666666667E+009;1.553877592086792E-001;8.826272189617157E-002;-1.037715654820204E-002;1.999781699851155E-003;
2.401333333333334E+009;1.559386253356934E-001;8.554049581289291E-002;-1.043154206126928E-002;2.302228938788176E-003;
2.401500000000000E+009;1.563784480094910E-001;8.249276131391525E-002;-1.025548018515110E-002;2.678206656128168E-003;
2.401666666666667E+009;1.568080186843872E-001;7.967680692672730E-002;-1.028959639370441E-002;3.009794512763619E-003;
2.401833333333334E+009;1.572954356670380E-001;7.718173414468765E-002;-1.018802169710398E-002;3.433553734794259E-003;
2.402000000000000E+009;1.580467373132706E-001;7.417373359203339E-002;-9.858366101980209E-003;3.937988542020321E-003;
2.402166666666667E+009;1.590905338525772E-001;7.174614816904068E-002;-9.892838075757027E-003;4.311955999583006E-003;
2.402333333333334E+009;1.598879843950272E-001;6.905541568994522E-002;-9.688959456980228E-003;4.625894594937563E-003;
2.402500000000000E+009;1.612945199012756E-001;6.650079041719437E-002;-9.668455459177494E-003;4.866938106715679E-003;
2.402666666666667E+009;1.624265313148499E-001;6.394299864768982E-002;-9.478566236793995E-003;5.340314935892820E-003;
2.402833333333334E+009;1.636873334646225E-001;6.163191795349121E-002;-9.422770701348782E-003;5.701955873519182E-003;
2.403000000000000E+009;1.653263568878174E-001;5.915918573737145E-002;-9.043049998581410E-003;6.234131753444672E-003;
2.403166666666667E+009;1.669236868619919E-001;5.703713744878769E-002;-8.843827061355114E-003;6.563695613294840E-003;
2.403333333333334E+009;1.683292239904404E-001;5.494372546672821E-002;-8.628754876554012E-003;6.943309213966131E-003;
2.403500000000000E+009;1.700839549303055E-001;5.296501889824867E-002;-8.286836557090282E-003;7.139620371162891E-003;
2.403666666666667E+009;1.718515157699585E-001;5.080398917198181E-002;-8.213966153562069E-003;7.504971232265234E-003;
2.403833333333334E+009;1.735652834177017E-001;4.901067912578583E-002;-7.686994038522244E-003;7.887289859354496E-003;
2.404000000000000E+009;1.749191135168076E-001;4.720581695437431E-002;-7.357359398156405E-003;8.100663311779499E-003;
2.404166666666667E+009;1.766848862171173E-001;4.566251859068871E-002;-6.986933294683695E-003;8.452001027762890E-003;
2.404333333333334E+009;1.783053427934647E-001;4.410218819975853E-002;-6.519943475723267E-003;8.645027875900269E-003;
2.404500000000000E+009;1.798885762691498E-001;4.282823950052261E-002;-6.008716765791178E-003;8.960669860243797E-003;
2.404666666666667E+009;1.815927475690842E-001;4.160892963409424E-002;-5.713950842618942E-003;8.896890096366406E-003;
2.404833333333334E+009;1.832046657800674E-001;4.060465469956398E-002;-5.336674861609936E-003;9.004186838865280E-003;
2.405000000000000E+009;1.844484359025955E-001;3.990597277879715E-002;-4.928632639348507E-003;9.195039980113506E-003;
2.405166666666667E+009;1.859887838363648E-001;3.906860202550888E-002;-4.559206310659647E-003;9.341987781226635E-003;
2.405333333333334E+009;1.872863024473190E-001;3.869138658046722E-002;-4.034226760268211E-003;9.480104781687260E-003;
2.405500000000000E+009;1.886374056339264E-001;3.816392272710800E-002;-3.650287864729762E-003;9.579138830304146E-003;
2.405666666666667E+009;1.898750513792038E-001;3.776894509792328E-002;-3.324093529954553E-003;9.478705935180187E-003;
2.405833333333334E+009;1.910804361104965E-001;3.754758462309837E-002;-2.937994897365570E-003;9.459749795496464E-003;
2.406000000000000E+009;1.920506805181503E-001;3.740328550338745E-002;-2.546992385759950E-003;9.468802250921726E-003;
2.406166666666667E+009;1.930135339498520E-001;3.717019781470299E-002;-2.127989893779159E-003;9.418360888957977E-003;
2.406333333333334E+009;1.938410252332687E-001;3.714084997773171E-002;-1.816671108826995E-003;9.312633424997330E-003;
2.406500000000000E+009;1.946473121643066E-001;3.715293109416962E-002;-1.481198822148144E-003;9.300244040787220E-003;
2.406666666666667E+009;1.952200829982758E-001;3.726253286004067E-002;-1.090583973564208E-003;9.437487460672855E-003;
2.406833333333334E+009;1.957320421934128E-001;3.716798126697540E-002;-9.081917814910412E-004;9.347100742161274E-003;
2.407000000000000E+009;1.959080249071121E-001;3.739276155829430E-002;-5.430473829619587E-004;9.096999652683735E-003;
2.407166666666667E+009;1.962738782167435E-001;3.720138967037201E-002;-4.367400542832911E-004;8.936867117881775E-003;
2.407333333333334E+009;1.962449401617050E-001;3.738794848322868E-002;2.281615707033780E-005;8.695397526025772E-003;
2.407500000000000E+009;1.961907297372818E-001;3.747958689928055E-002;2.321510401088744E-004;8.666109293699265E-003;
2.407666666666667E+009;1.961478888988495E-001;3.737458959221840E-002;4.965119296684861E-004;8.569876663386822E-003;
2.407833333333334E+009;1.955283135175705E-001;3.725092485547066E-002;5.786259425804019E-004;8.344365283846855E-003;
2.408000000000000E+009;1.954483836889267E-001;3.708526492118835E-002;7.913935696706176E-004;8.172500878572464E-003;
2.408166666666667E+009;1.947951018810272E-001;3.671723231673241E-002;9.976133005693555E-004;7.991665974259377E-003;
2.408333333333334E+009;1.943695098161697E-001;3.628214821219444E-002;1.021409174427390E-003;7.919708266854286E-003;
2.408500000000000E+009;1.935789138078690E-001;3.594399988651276E-002;1.255489652976394E-003;7.822501473128796E-003;
2.408666666666667E+009;1.929469257593155E-001;3.541255742311478E-002;1.458246144466102E-003;7.568269036710262E-003;
2.408833333333334E+009;1.922539770603180E-001;3.472242504358292E-002;1.379481283947825E-003;7.437792140990496E-003;
2.409000000000000E+009;1.914571821689606E-001;3.369320556521416E-002;1.726034330204129E-003;7.149503566324711E-003;
2.409166666666667E+009;1.904045045375824E-001;3.288757801055908E-002;1.726945280097425E-003;7.109168451279402E-003;
2.409333333333334E+009;1.893488913774490E-001;3.165010735392571E-002;1.660091336816549E-003;6.806691642850637E-003;
2.409500000000000E+009;1.882694065570831E-001;3.046771325170994E-002;1.819693716242909E-003;6.920189131051302E-003;
2.409666666666667E+009;1.872816979885101E-001;2.903385460376740E-002;1.780735445208848E-003;6.974201649427414E-003;
2.409833333333334E+009;1.861620396375656E-001;2.760556340217590E-002;1.722349668852985E-003;6.832335144281387E-003;
2.410000000000000E+009;1.850764900445938E-001;2.594696171581745E-002;1.810568850487471E-003;6.809804588556290E-003;
2.410166666666667E+009;1.842182278633118E-001;2.417372539639473E-002;1.743205473758280E-003;6.839894689619541E-003;
2.410333333333334E+009;1.832391023635864E-001;2.233516238629818E-002;1.840019715018570E-003;6.598954554647207E-003;
2.410500000000000E+009;1.820829063653946E-001;2.047686465084553E-002;2.064251806586981E-003;6.685401313006878E-003;
2.410666666666667E+009;1.813442260026932E-001;1.814252138137817E-002;2.005644142627716E-003;6.559763103723526E-003;
2.410833333333334E+009;1.807494759559631E-001;1.604868657886982E-002;2.243758644908667E-003;6.586885545402765E-003;
2.411000000000000E+009;1.798652261495590E-001;1.379446405917406E-002;2.346852328628302E-003;6.738046184182167E-003;
2.411166666666667E+009;1.792340576648712E-001;1.166495401412249E-002;2.467624843120575E-003;6.612589117139578E-003;
2.411333333333334E+009;1.787178516387940E-001;9.204975329339504E-003;2.553816884756088E-003;6.570108700543642E-003;
2.411500000000000E+009;1.783699840307236E-001;6.903143599629402E-003;2.727129496634007E-003;6.581717170774937E-003;
2.411666666666667E+009;1.782325059175491E-001;4.442229401320219E-003;2.905050758272409E-003;6.623838096857071E-003;
2.411833333333334E+009;1.778121590614319E-001;2.258756663650274E-003;2.875674050301313E-003;6.501918658614159E-003;
2.412000000000000E+009;1.781727373600006E-001;-4.229011246934533E-004;3.009427571669221E-003;6.451788824051619E-003;
2.412166666666667E+009;1.781621873378754E-001;-2.674469491466880E-003;3.151599550619721E-003;6.349928211420775E-003;
2.412333333333334E+009;1.783046573400497E-001;-5.262882448732853E-003;3.182229353114963E-003;6.494404748082161E-003;
2.412500000000000E+009;1.786567270755768E-001;-7.540466263890266E-003;3.383399220183492E-003;6.380414124578238E-003;
2.412666666666667E+009;1.793428808450699E-001;-1.015093363821507E-002;3.491094103083015E-003;6.443655584007502E-003;
2.412833333333334E+009;1.799880117177963E-001;-1.243870053440332E-002;3.706977237015963E-003;6.331375800073147E-003;
2.413000000000000E+009;1.807669848203659E-001;-1.460992638021708E-002;3.748656949028373E-003;6.425318308174610E-003;
2.413166666666667E+009;1.815134137868881E-001;-1.708268187940121E-002;3.911912441253662E-003;6.446999032050371E-003;
2.413333333333334E+009;1.825488507747650E-001;-1.940095610916615E-002;4.057881422340870E-003;6.475717294961214E-003;
2.413500000000000E+009;1.832990795373917E-001;-2.150690183043480E-002;4.324690904468298E-003;6.373724900186062E-003;
2.413666666666667E+009;1.844973117113113E-001;-2.368954010307789E-002;4.459241405129433E-003;6.311942357569933E-003;
2.413833333333334E+009;1.857167482376099E-001;-2.552627585828304E-002;4.687679931521416E-003;6.453426089137793E-003;
2.414000000000000E+009;1.865955442190170E-001;-2.753944694995880E-002;4.904760979115963E-003;6.284441798925400E-003;
2.414166666666667E+009;1.879342943429947E-001;-2.934356592595577E-002;5.307952407747507E-003;6.301670335233212E-003;
2.414333333333334E+009;1.890195459127426E-001;-3.126103803515434E-002;5.470058415085077E-003;6.118561141192913E-003;
2.414500000000000E+009;1.903308629989624E-001;-3.269005939364433E-002;5.678061861544848E-003;6.164583377540112E-003;
2.414666666666667E+009;1.913980096578598E-001;-3.426561504602432E-002;5.873641464859247E-003;5.895023699849844E-003;
2.414833333333334E+009;1.924583613872528E-001;-3.548234701156616E-002;6.287669297307730E-003;5.619007162749767E-003;
2.415000000000000E+009;1.935936808586121E-001;-3.681481629610062E-002;6.422195583581924E-003;5.667127668857575E-003;
2.415166666666667E+009;1.948339492082596E-001;-3.777322545647621E-002;6.639587692916393E-003;5.549575202167034E-003;
2.415333333333334E+009;1.959997117519379E-001;-3.858205303549767E-002;6.953970063477755E-003;5.405069328844547E-003;
2.415500000000000E+009;1.971741765737534E-001;-3.927491232752800E-002;7.245904766023159E-003;5.221386905759573E-003;
2.415666666666667E+009;1.980779767036438E-001;-4.022628441452980E-002;7.433705031871796E-003;4.947562702000141E-003;
2.415833333333334E+009;1.988008022308350E-001;-4.088061675429344E-002;7.887278683483601E-003;4.791615065187216E-003;
2.416000000000000E+009;1.996988356113434E-001;-4.136061668395996E-002;8.054072037339211E-003;4.644791595637798E-003;
2.416166666666667E+009;2.004374116659164E-001;-4.196675121784210E-002;8.199221454560757E-003;4.362900741398335E-003;
2.416333333333334E+009;2.009672075510025E-001;-4.215253517031670E-002;8.345896378159523E-003;3.967909142374992E-003;
2.416500000000000E+009;2.014009803533554E-001;-4.228177294135094E-002;8.693137206137180E-003;3.697437932714820E-003;
2.416666666666667E+009;2.016955614089966E-001;-4.258284717798233E-002;8.939146064221859E-003;3.335798624902964E-003;
2.416833333333334E+009;2.017757147550583E-001;-4.260566085577011E-002;9.095135144889355E-003;3.086830489337444E-003;
2.417000000000000E+009;2.019920498132706E-001;-4.274214431643486E-002;9.181293658912182E-003;2.761960728093982E-003;
2.417166666666667E+009;2.016364932060242E-001;-4.250079020857811E-002;9.248425252735615E-003;2.374128205701709E-003;
2.417333333333334E+009;2.015015482902527E-001;-4.232533648610115E-002;9.431395679712296E-003;1.975992694497109E-003;
2.417500000000000E+009;2.011356949806213E-001;-4.242354631423950E-002;9.516641497612000E-003;1.533217960968614E-003;
2.417666666666667E+009;2.006771117448807E-001;-4.221155494451523E-002;9.462900459766388E-003;1.174990553408861E-003;
2.417833333333334E+009;2.002020776271820E-001;-4.191764816641808E-002;9.587381035089493E-003;9.731973404996097E-004;
2.418000000000000E+009;1.996010094881058E-001;-4.157446697354317E-002;9.437015280127525E-003;6.790165789425373E-004;
2.418166666666667E+009;1.987422555685043E-001;-4.162519797682762E-002;9.564218111336231E-003;2.774346212390810E-004;
2.418333333333334E+009;1.978595107793808E-001;-4.140488803386688E-002;9.505358524620533E-003;-2.242741174995899E-004;
2.418500000000000E+009;1.967659294605255E-001;-4.129724949598312E-002;9.362823329865933E-003;-4.046611720696092E-004;
2.418666666666667E+009;1.958864629268646E-001;-4.122678190469742E-002;9.444482624530792E-003;-7.061843643896282E-004;
2.418833333333334E+009;1.946695297956467E-001;-4.143287241458893E-002;9.384144097566605E-003;-9.300571400672197E-004;
2.419000000000000E+009;1.934439241886139E-001;-4.163587838411331E-002;9.238163009285927E-003;-1.286337035708129E-003;
2.419166666666667E+009;1.921849995851517E-001;-4.178214445710182E-002;9.092357940971851E-003;-1.618424779735506E-003;
2.419333333333334E+009;1.907515525817871E-001;-4.240684956312180E-002;9.102417156100273E-003;-1.715094898827374E-003;
2.419500000000000E+009;1.894381344318390E-001;-4.280873760581017E-002;8.904773741960526E-003;-2.195764333009720E-003;
2.419666666666667E+009;1.879553347826004E-001;-4.357166215777397E-002;8.807723410427570E-003;-2.304108347743750E-003;
2.419833333333334E+009;1.864058673381805E-001;-4.433292523026466E-002;8.743871003389359E-003;-2.532338956370950E-003;
2.420000000000000E+009;1.848393380641937E-001;-4.509950429201126E-002;8.560965768992901E-003;-2.832526573911309E-003;
2.420166666666667E+009;1.830588430166245E-001;-4.620029404759407E-002;8.514932356774807E-003;-3.225652500987053E-003;
2.420333333333334E+009;1.817307025194168E-001;-4.727042093873024E-002;8.245240896940231E-003;-3.216631244868040E-003;
2.420500000000000E+009;1.800892055034638E-001;-4.858007282018662E-002;8.377844467759132E-003;-3.476879792287946E-003;
2.420666666666667E+009;1.784542500972748E-001;-4.968169331550598E-002;8.251560851931572E-003;-3.748418530449271E-003;
2.420833333333334E+009;1.769838780164719E-001;-5.130629986524582E-002;8.132620714604855E-003;-4.063457716256380E-003;
2.421000000000000E+009;1.754541248083115E-001;-5.283234268426895E-002;8.000777103006840E-003;-4.141876008361578E-003;
2.421166666666667E+009;1.741610318422318E-001;-5.454246327280998E-002;7.727358024567366E-003;-4.371549934148789E-003;
2.421333333333334E+009;1.725022047758102E-001;-5.612134560942650E-002;7.693009451031685E-003;-4.727442283183336E-003;
2.421500000000000E+009;1.711134016513825E-001;-5.813818797469139E-002;7.409940939396620E-003;-5.019748583436012E-003;
2.421666666666667E+009;1.698865443468094E-001;-5.993578583002091E-002;7.213687524199486E-003;-5.104858893901110E-003;
2.421833333333334E+009;1.690562218427658E-001;-6.179248169064522E-002;7.052110508084297E-003;-5.263441707938910E-003;
2.422000000000000E+009;1.679223328828812E-001;-6.374590098857880E-002;6.898654624819756E-003;-5.641913041472435E-003;
2.422166666666667E+009;1.670699715614319E-001;-6.596759706735611E-002;6.637024693191052E-003;-5.866430699825287E-003;
2.422333333333334E+009;1.660417020320892E-001;-6.801297515630722E-002;6.310982629656792E-003;-5.865398328751326E-003;
2.422500000000000E+009;1.654065847396851E-001;-7.004139572381973E-002;6.175315938889980E-003;-6.196112371981144E-003;
2.422666666666667E+009;1.647706329822540E-001;-7.197186350822449E-002;5.889713298529387E-003;-6.290866993367672E-003;
2.422833333333334E+009;1.642507910728455E-001;-7.391784340143204E-002;5.697317421436310E-003;-6.509804632514715E-003;
2.423000000000000E+009;1.638041883707047E-001;-7.605628669261932E-002;5.360289942473173E-003;-6.657834164798260E-003;
2.423166666666667E+009;1.633225679397583E-001;-7.795673608779907E-002;5.185312125831842E-003;-6.696228403598070E-003;
2.423333333333334E+009;1.631878912448883E-001;-8.000626415014267E-002;4.881630185991526E-003;-6.767798680812120E-003;
2.423500000000000E+009;1.631484031677246E-001;-8.182156831026077E-002;4.572685342282057E-003;-6.896256469190121E-003;
2.423666666666667E+009;1.630370765924454E-001;-8.381707966327667E-002;4.425098653882742E-003;-6.945963483303785E-003;
2.423833333333334E+009;1.630024760961533E-001;-8.556240051984787E-002;4.348505288362503E-003;-6.907682865858078E-003;
2.424000000000000E+009;1.632671058177948E-001;-8.729908615350723E-002;3.910655621439219E-003;-6.936507765203714E-003;
2.424166666666667E+009;1.632363200187683E-001;-8.887438476085663E-002;3.737204708158970E-003;-6.982479244470596E-003;
2.424333333333334E+009;1.633869856595993E-001;-9.036877006292343E-002;3.396576968953013E-003;-6.891066674143076E-003;
2.424500000000000E+009;1.638894379138947E-001;-9.214897453784943E-002;3.212943440303206E-003;-6.978576071560383E-003;
2.424666666666667E+009;1.639487147331238E-001;-9.351771324872971E-002;2.934265416115522E-003;-6.888191681355238E-003;
2.424833333333334E+009;1.644584238529205E-001;-9.480115026235580E-002;2.978988224640489E-003;-7.023029029369354E-003;
2.425000000000000E+009;1.649221777915955E-001;-9.596417099237442E-002;2.722575329244137E-003;-6.981520447880030E-003;
2.425166666666667E+009;1.652157455682755E-001;-9.692498296499252E-002;2.433191984891892E-003;-6.960189435631037E-003;
2.425333333333334E+009;1.654687523841858E-001;-9.786833822727203E-002;2.358871744945645E-003;-7.050154265016317E-003;
2.425500000000000E+009;1.660039275884628E-001;-9.880185127258301E-002;2.276714658364654E-003;-6.977873388677836E-003;
2.425666666666667E+009;1.663600206375122E-001;-9.943388402462006E-002;2.209372818470001E-003;-7.027922663837671E-003;
2.425833333333334E+009;1.665912270545960E-001;-1.003517061471939E-001;2.075190655887127E-003;-7.126034703105688E-003;
2.426000000000000E+009;1.671034693717957E-001;-1.007229909300804E-001;1.872929045930505E-003;-6.935489363968372E-003;
2.426166666666667E+009;1.674893200397492E-001;-1.011940166354179E-001;1.727216411381960E-003;-7.050365209579468E-003;
2.426333333333334E+009;1.675529927015305E-001;-1.017285361886025E-001;1.655137282796204E-003;-7.052679080516100E-003;
2.426500000000000E+009;1.679062545299530E-001;-1.019918620586395E-001;1.405965187586844E-003;-7.136540953069925E-003;
2.426666666666667E+009;1.680890768766403E-001;-1.023752242326737E-001;1.339262234978378E-003;-7.099066395312548E-003;
2.426833333333334E+009;1.683218032121658E-001;-1.025943905115128E-001;1.133278245106340E-003;-7.161630783230066E-003;
2.427000000000000E+009;1.683261543512344E-001;-1.027789637446404E-001;8.876611245796084E-004;-7.197907194495201E-003;
2.427166666666667E+009;1.684521436691284E-001;-1.028828322887421E-001;7.233400829136372E-004;-7.231182418763638E-003;
2.427333333333334E+009;1.682996898889542E-001;-1.030835881829262E-001;3.991334233433008E-004;-7.287871092557907E-003;
2.427500000000000E+009;1.680994182825089E-001;-1.033240929245949E-001;4.769921361003071E-004;-7.287322077900171E-003;
2.427666666666667E+009;1.676026433706284E-001;-1.033455282449722E-001;2.622326137498021E-004;-7.339039817452431E-003;
2.427833333333334E+009;1.673150509595871E-001;-1.033954769372940E-001;-4.788781370734796E-005;-7.275506854057312E-003;
