# Version 1.00
#
freq[Hz];re:Trc1_S11;im:Trc1_S11;re:Trc2_S21;im:Trc2_S21;
2.400000000000000E+009;1.688761264085770E-001;4.688913747668266E-002;4.710990004241467E-003;5.075713153928518E-003;
2.400166666666667E+009;1.699870377779007E-001;4.594751074910164E-002;4.737714305520058E-003;4.754232242703438E-003;
2.400333333333334E+009;1.709886342287064E-001;4.476583749055862E-002;4.864439833909273E-003;4.489401355385780E-003;
2.400500000000000E+009;1.717476397752762E-001;4.388998821377754E-002;4.978430923074484E-003;4.249117337167263E-003;
2.400666666666667E+009;1.725011020898819E-001;4.284254461526871E-002;5.023268517106772E-003;4.071377217769623E-003;
2.400833333333334E+009;1.734784990549088E-001;4.222713038325310E-002;5.131175741553307E-003;3.780315164476633E-003;
2.401000000000000E+009;1.742967814207077E-001;4.134455695748329E-002;5.245339591056109E-003;3.701770212501288E-003;
2.401166666666667E+009;1.750121563673019E-001;4.054890573024750E-002;5.311995279043913E-003;3.335572313517332E-003;
2.401333333333334E+009;1.755029112100601E-001;3.990670293569565E-002;5.468020215630531E-003;2.981216646730900E-003;
2.401500000000000E+009;1.761441677808762E-001;3.910931944847107E-002;5.428577773272991E-003;2.876309445127845E-003;
2.401666666666667E+009;1.768511235713959E-001;3.865782171487808E-002;5.511771887540817E-003;2.729968400672078E-003;
2.401833333333334E+009;1.775003969669342E-001;3.793479502201080E-002;5.592127796262503E-003;2.425219863653183E-003;
2.402000000000000E+009;1.778327226638794E-001;3.746575862169266E-002;5.485678557306528E-003;2.357942517846823E-003;
2.402166666666667E+009;1.781253516674042E-001;3.658761829137802E-002;5.544431041926146E-003;1.974273705855012E-003;
2.402333333333334E+009;1.785544902086258E-001;3.611467406153679E-002;5.434606689959765E-003;1.772509422153235E-003;
2.402500000000000E+009;1.789188683032990E-001;3.532624617218971E-002;5.662257783114910E-003;1.597151276655495E-003;
2.402666666666667E+009;1.790737062692642E-001;3.475664183497429E-002;5.662452429533005E-003;1.259811222553253E-003;
2.402833333333334E+009;1.792626827955246E-001;3.403514996170998E-002;5.508081056177616E-003;1.090813428163528E-003;
2.403000000000000E+009;1.791185289621353E-001;3.334712609648705E-002;5.540881771594286E-003;9.629876585677266E-004;
2.403166666666667E+009;1.791378110647202E-001;3.242705389857292E-002;5.320795346051455E-003;6.984127103351057E-004;
2.403333333333334E+009;1.791524291038513E-001;3.183652088046074E-002;5.368608981370926E-003;5.605571204796433E-004;
2.403500000000000E+009;1.787672191858292E-001;3.073883056640625E-002;5.046768579632044E-003;3.163623332511634E-004;
2.403666666666667E+009;1.787702292203903E-001;2.967684902250767E-002;5.235887598246336E-003;1.267025800189003E-004;
2.403833333333334E+009;1.784774810075760E-001;2.834793552756310E-002;4.999023862183094E-003;-1.024471639539115E-004;
2.404000000000000E+009;1.780068129301071E-001;2.723246999084950E-002;4.896115511655808E-003;-1.513692986918613E-004;
2.404166666666667E+009;1.777426302433014E-001;2.604134939610958E-002;4.920917563140392E-003;-2.629598020575941E-004;
2.404333333333334E+009;1.772440075874329E-001;2.493545971810818E-002;4.615310579538345E-003;-3.782620478887111E-004;
2.404500000000000E+009;1.767785549163818E-001;2.349510416388512E-002;4.763165488839150E-003;-5.328914267010987E-004;
2.404666666666667E+009;1.762936413288117E-001;2.204725891351700E-002;4.506783094257116E-003;-5.844967672601342E-004;
2.404833333333334E+009;1.758976727724075E-001;2.048969082534313E-002;4.368328489363194E-003;-7.927507394924760E-004;
2.405000000000000E+009;1.753987520933151E-001;1.907678321003914E-002;4.258119035512209E-003;-6.776651134714484E-004;
2.405166666666667E+009;1.748350709676743E-001;1.729606464505196E-002;4.245136864483357E-003;-6.887046620249748E-004;
2.405333333333334E+009;1.745273619890213E-001;1.557768043130636E-002;4.429107531905174E-003;-8.651195676065981E-004;
2.405500000000000E+009;1.742228269577026E-001;1.393983885645866E-002;4.204129800200462E-003;-8.691480616107583E-004;
2.405666666666667E+009;1.737796515226364E-001;1.220533344894648E-002;4.174498841166496E-003;-1.120629254728556E-003;
2.405833333333334E+009;1.732489913702011E-001;1.051323208957911E-002;3.960466943681240E-003;-1.000921009108424E-003;
2.406000000000000E+009;1.732361912727356E-001;8.447034284472466E-003;4.077801015228033E-003;-1.061039278283715E-003;
2.406166666666667E+009;1.728960424661636E-001;6.698311772197485E-003;3.905947552993894E-003;-1.151247764937580E-003;
2.406333333333334E+009;1.729559004306793E-001;4.864410031586886E-003;4.100116901099682E-003;-1.066292286850512E-003;
2.406500000000000E+009;1.727257370948792E-001;2.793628722429276E-003;4.111968912184238E-003;-1.243169419467449E-003;
2.406666666666667E+009;1.725116074085236E-001;7.468292023986578E-004;3.905343357473612E-003;-1.355156535282731E-003;
2.406833333333334E+009;1.726325899362564E-001;-1.241164398379624E-003;3.913700114935637E-003;-1.479762024246156E-003;
2.407000000000000E+009;1.728257834911346E-001;-3.312601009383798E-003;3.775821998715401E-003;-1.431022188626230E-003;
2.407166666666667E+009;1.730256676673889E-001;-5.332936998456717E-003;3.946120385080576E-003;-1.505406456999481E-003;
2.407333333333334E+009;1.731229722499847E-001;-7.476147264242172E-003;4.121537320315838E-003;-1.713564968667924E-003;
2.407500000000000E+009;1.734216660261154E-001;-9.471442550420761E-003;4.133722279220820E-003;-1.863801968283951E-003;
2.407666666666667E+009;1.739122122526169E-001;-1.162552088499069E-002;4.034344106912613E-003;-2.035704907029867E-003;
2.407833333333334E+009;1.740773171186447E-001;-1.376101933419704E-002;3.839695360511541E-003;-2.214879030361772E-003;
2.408000000000000E+009;1.744467467069626E-001;-1.580894924700260E-002;3.696459345519543E-003;-2.249891869723797E-003;
2.408166666666667E+009;1.748910993337631E-001;-1.762597076594830E-002;3.676358610391617E-003;-2.558931475505233E-003;
2.408333333333334E+009;1.755152791738510E-001;-1.946152374148369E-002;3.690141486003995E-003;-2.846502698957920E-003;
2.408500000000000E+009;1.757443696260452E-001;-2.156709320843220E-002;3.517110133543611E-003;-2.862217370420694E-003;
2.408666666666667E+009;1.762260049581528E-001;-2.336690202355385E-002;3.492235671728849E-003;-3.069889033213258E-003;
2.408833333333334E+009;1.765322834253311E-001;-2.510076016187668E-002;3.174743615090847E-003;-3.042079973965883E-003;
2.409000000000000E+009;1.770124435424805E-001;-2.660256996750832E-002;3.032393520697951E-003;-3.312557935714722E-003;
2.409166666666667E+009;1.775056421756744E-001;-2.811018750071526E-002;2.855014987289906E-003;-3.257198724895716E-003;
2.409333333333334E+009;1.779119074344635E-001;-2.945997938513756E-002;2.727195154875517E-003;-3.330620471388102E-003;
2.409500000000000E+009;1.784009933471680E-001;-3.104065917432308E-002;2.587784780189395E-003;-3.526155371218920E-003;
2.409666666666667E+009;1.787494421005249E-001;-3.201548010110855E-002;2.564603462815285E-003;-3.433315549045801E-003;
2.409833333333334E+009;1.791593730449677E-001;-3.290197625756264E-002;2.252656500786543E-003;-3.542206715792418E-003;
2.410000000000000E+009;1.796557903289795E-001;-3.387442603707314E-002;1.995069673284888E-003;-3.721622284501791E-003;
2.410166666666667E+009;1.801209598779678E-001;-3.463488817214966E-002;1.898362650536001E-003;-3.522529965266585E-003;
2.410333333333334E+009;1.805409789085388E-001;-3.558121621608734E-002;1.738929189741612E-003;-3.575670067220926E-003;
2.410500000000000E+009;1.811161786317825E-001;-3.638606891036034E-002;1.706020790152252E-003;-3.552741138264537E-003;
2.410666666666667E+009;1.812327504158020E-001;-3.711152076721191E-002;1.592559390701354E-003;-3.462125314399600E-003;
2.410833333333334E+009;1.815891563892365E-001;-3.756148740649223E-002;1.438563573174179E-003;-3.686865791678429E-003;
2.411000000000000E+009;1.819045841693878E-001;-3.800396248698235E-002;1.239401986822486E-003;-3.451134776696563E-003;
2.411166666666667E+009;1.822233349084854E-001;-3.862889856100082E-002;1.181539497338235E-003;-3.478877013549209E-003;
2.411333333333334E+009;1.823725253343582E-001;-3.897221013903618E-002;9.582056663930416E-004;-3.375126747414470E-003;
2.411500000000000E+009;1.822957247495651E-001;-3.953851386904717E-002;7.964711985550821E-004;-3.398052649572492E-003;
2.411666666666667E+009;1.822338551282883E-001;-3.987330570816994E-002;8.862448739819229E-004;-3.421775531023741E-003;
2.411833333333334E+009;1.821969002485275E-001;-4.020783305168152E-002;7.017828174866736E-004;-3.388724988326430E-003;
2.412000000000000E+009;1.820824444293976E-001;-4.085965454578400E-002;7.278250996023417E-004;-3.184253582730889E-003;
2.412166666666667E+009;1.815997511148453E-001;-4.099434986710548E-002;5.793971358798444E-004;-3.255018731579185E-003;
2.412333333333334E+009;1.813435256481171E-001;-4.119117558002472E-002;6.015312974341214E-004;-3.305224701762199E-003;
2.412500000000000E+009;1.806946396827698E-001;-4.168463125824928E-002;3.731317119672895E-004;-3.097553271800280E-003;
2.412666666666667E+009;1.801878362894058E-001;-4.198703542351723E-002;4.047110269311816E-004;-3.152611199766398E-003;
2.412833333333334E+009;1.796061247587204E-001;-4.253485426306725E-002;3.209961287211627E-004;-3.306298749521375E-003;
2.413000000000000E+009;1.784910857677460E-001;-4.300775006413460E-002;1.618751703063026E-004;-3.272424219176173E-003;
2.413166666666667E+009;1.777204573154450E-001;-4.318934306502342E-002;2.822659444063902E-004;-3.147800453007221E-003;
2.413333333333334E+009;1.768373250961304E-001;-4.387575015425682E-002;6.571269477717578E-005;-3.136661369353533E-003;
2.413500000000000E+009;1.759283840656281E-001;-4.441759362816811E-002;2.541130379540846E-005;-3.096228931099176E-003;
2.413666666666667E+009;1.748911887407303E-001;-4.479644447565079E-002;-1.910003047669306E-004;-2.983073703944683E-003;
2.413833333333334E+009;1.735584586858749E-001;-4.547911137342453E-002;-1.729979267111048E-004;-3.023077268153429E-003;
2.414000000000000E+009;1.723502725362778E-001;-4.619833454489708E-002;-1.322448806604371E-004;-3.055813256651163E-003;
2.414166666666667E+009;1.714229881763458E-001;-4.697332531213760E-002;-3.311588370706886E-004;-2.735888352617621E-003;
2.414333333333334E+009;1.702983826398850E-001;-4.787892848253250E-002;-2.478810783941299E-004;-2.778759924694896E-003;
2.414500000000000E+009;1.690138876438141E-001;-4.868794605135918E-002;-2.813201863318682E-004;-2.721281256526709E-003;
2.414666666666667E+009;1.677526384592056E-001;-4.969239607453346E-002;-1.454324228689075E-004;-2.813701285049319E-003;
2.414833333333334E+009;1.664769500494003E-001;-5.083269998431206E-002;-1.029152772389352E-004;-2.719395328313112E-003;
2.415000000000000E+009;1.652483940124512E-001;-5.193733051419258E-002;-1.335287233814597E-004;-2.694336231797934E-003;
2.415166666666667E+009;1.640882641077042E-001;-5.324340239167213E-002;-1.030801940942183E-004;-2.610390540212393E-003;
2.415333333333334E+009;1.630344092845917E-001;-5.471546202898026E-002;-1.732731325319037E-004;-2.585997804999352E-003;
2.415500000000000E+009;1.618669480085373E-001;-5.605172738432884E-002;-1.437352620996535E-004;-2.724179299548268E-003;
2.415666666666667E+009;1.606409400701523E-001;-5.761634185910225E-002;-2.930179180111736E-004;-2.717097755521536E-003;
2.415833333333334E+009;1.596648991107941E-001;-5.928095802664757E-002;-1.547686406411231E-004;-2.722923178225756E-003;
2.416000000000000E+009;1.583662033081055E-001;-6.106756255030632E-002;-1.715233229333535E-004;-2.818353706970811E-003;
2.416166666666667E+009;1.575472801923752E-001;-6.279593706130981E-002;-3.370184276718646E-004;-2.862425288185477E-003;
2.416333333333334E+009;1.566270291805267E-001;-6.453377753496170E-002;-3.203763626515865E-004;-3.002004465088248E-003;
2.416500000000000E+009;1.557363271713257E-001;-6.647508591413498E-002;-3.264567640144378E-004;-3.054147819057107E-003;
2.416666666666667E+009;1.547935754060745E-001;-6.822078675031662E-002;-3.481382154859603E-004;-3.056345041841269E-003;
2.416833333333334E+009;1.540730297565460E-001;-7.037281990051270E-002;-5.314376321621239E-004;-3.065526951104403E-003;
2.417000000000000E+009;1.532639265060425E-001;-7.226324826478958E-002;-5.445047863759100E-004;-3.226033179089427E-003;
2.417166666666667E+009;1.525723934173584E-001;-7.420102506875992E-002;-6.026803748682141E-004;-3.258164739236236E-003;
2.417333333333334E+009;1.520984619855881E-001;-7.602380216121674E-002;-7.565143750980496E-004;-3.298930823802948E-003;
2.417500000000000E+009;1.515140682458878E-001;-7.821492105722427E-002;-8.313730359077454E-004;-3.379365894943476E-003;
2.417666666666667E+009;1.511952280998230E-001;-7.994949817657471E-002;-9.145683725364506E-004;-3.515022108331323E-003;
2.417833333333334E+009;1.507147997617722E-001;-8.178691565990448E-002;-1.211935188621283E-003;-3.509374568238854E-003;
2.418000000000000E+009;1.503894031047821E-001;-8.376820385456085E-002;-1.179000246338546E-003;-3.595599671825767E-003;
2.418166666666667E+009;1.501859128475189E-001;-8.535559475421906E-002;-1.359360059723258E-003;-3.471273696050048E-003;
2.418333333333334E+009;1.501505672931671E-001;-8.705082535743713E-002;-1.575164031237364E-003;-3.552065230906010E-003;
2.418500000000000E+009;1.499502211809158E-001;-8.869639039039612E-002;-1.652132486924529E-003;-3.537850454449654E-003;
2.418666666666667E+009;1.499720513820648E-001;-9.014718234539032E-002;-1.854575122706592E-003;-3.476533340290189E-003;
2.418833333333334E+009;1.498333662748337E-001;-9.148601442575455E-002;-2.077651210129261E-003;-3.391870297491550E-003;
2.419000000000000E+009;1.497763395309448E-001;-9.297371655702591E-002;-2.303800312802196E-003;-3.432445460930467E-003;
2.419166666666667E+009;1.498887687921524E-001;-9.408160299062729E-002;-2.414406044408679E-003;-3.379210364073515E-003;
2.419333333333334E+009;1.499670594930649E-001;-9.509466588497162E-002;-2.604169538244605E-003;-3.247112501412630E-003;
2.419500000000000E+009;1.502702832221985E-001;-9.621731936931610E-002;-2.767703263089061E-003;-3.297248855233192E-003;
2.419666666666667E+009;1.505546718835831E-001;-9.700945019721985E-002;-3.169316798448563E-003;-3.035025205463171E-003;
2.419833333333334E+009;1.507303863763809E-001;-9.774620831012726E-002;-3.119587432593107E-003;-2.888211747631431E-003;
2.420000000000000E+009;1.510602235794067E-001;-9.838573634624481E-002;-3.292653011158109E-003;-2.758038695901632E-003;
2.420166666666667E+009;1.513850241899490E-001;-9.891061484813690E-002;-3.523022867739201E-003;-2.586543792858720E-003;
2.420333333333334E+009;1.517156511545181E-001;-9.940519183874130E-002;-3.558987053111196E-003;-2.416818402707577E-003;
2.420500000000000E+009;1.520041376352310E-001;-9.959926456212997E-002;-3.733775112777948E-003;-2.219551708549261E-003;
2.420666666666667E+009;1.521280705928803E-001;-9.978717565536499E-002;-3.864369355142117E-003;-2.129246247932315E-003;
2.420833333333334E+009;1.525504291057587E-001;-9.997633844614029E-002;-3.833165625110269E-003;-1.774535747244954E-003;
2.421000000000000E+009;1.526632159948349E-001;-1.001187860965729E-001;-3.667460987344384E-003;-1.717661507427692E-003;
2.421166666666667E+009;1.530400216579437E-001;-9.997813403606415E-002;-3.895902540534735E-003;-1.484091975726187E-003;
2.421333333333334E+009;1.531588584184647E-001;-1.000503301620483E-001;-3.856027266010642E-003;-1.386151183396578E-003;
2.421500000000000E+009;1.530988067388535E-001;-9.968292713165283E-002;-3.811734030023217E-003;-1.064375392161310E-003;
2.421666666666667E+009;1.532044559717178E-001;-9.968114644289017E-002;-3.806748194620013E-003;-8.950785850174725E-004;
2.421833333333334E+009;1.531023532152176E-001;-9.934365749359131E-002;-3.687369171530008E-003;-7.852254784666002E-004;
2.422000000000000E+009;1.528200954198837E-001;-9.907052665948868E-002;-3.785742213949561E-003;-5.951554048806429E-004;
2.422166666666667E+009;1.526076197624207E-001;-9.903389960527420E-002;-3.697301261126995E-003;-5.523663712665439E-004;
2.422333333333334E+009;1.522354036569595E-001;-9.848037362098694E-002;-3.742638975381851E-003;-4.976125783286989E-004;
2.422500000000000E+009;1.516553312540054E-001;-9.812880307435989E-002;-3.806954249739647E-003;-3.601708158385009E-004;
2.422666666666667E+009;1.509200036525726E-001;-9.778599441051483E-002;-3.635903354734182E-003;-3.400379209779203E-004;
2.422833333333334E+009;1.503099203109741E-001;-9.757494181394577E-002;-3.459753235802054E-003;-1.322663447353989E-004;
2.423000000000000E+009;1.495746970176697E-001;-9.717088192701340E-002;-3.584940219298005E-003;-2.372415910940617E-004;
2.423166666666667E+009;1.485898047685623E-001;-9.681469947099686E-002;-3.539122873917222E-003;-8.713538409210742E-005;
2.423333333333334E+009;1.475797146558762E-001;-9.622757881879807E-002;-3.600249765440822E-003;-3.401358412702393E-007;
2.423500000000000E+009;1.464288085699081E-001;-9.601818025112152E-002;-3.498213132843375E-003;-9.085165220312774E-005;
2.423666666666667E+009;1.452548950910568E-001;-9.577930718660355E-002;-3.625317942351103E-003;2.121366123901680E-004;
2.423833333333334E+009;1.441799551248550E-001;-9.546827524900436E-002;-3.535060910508037E-003;4.342894317233004E-005;
2.424000000000000E+009;1.427090018987656E-001;-9.515646100044251E-002;-3.509170608595014E-003;2.032011980190873E-004;
2.424166666666667E+009;1.412847787141800E-001;-9.508386254310608E-002;-3.696027444675565E-003;3.505811328068376E-004;
2.424333333333334E+009;1.399682462215424E-001;-9.493203461170197E-002;-3.694917308166623E-003;4.859597538597882E-004;
2.424500000000000E+009;1.385756731033325E-001;-9.501376003026962E-002;-3.824865212664008E-003;6.073350086808205E-004;
2.424666666666667E+009;1.371126472949982E-001;-9.477368742227554E-002;-3.674744861200452E-003;6.017127307131887E-004;
2.424833333333334E+009;1.353603899478912E-001;-9.521637111902237E-002;-3.753657452762127E-003;7.224651053547859E-004;
2.425000000000000E+009;1.341082006692886E-001;-9.554271399974823E-002;-3.854939248412848E-003;1.015486894175410E-003;
2.425166666666667E+009;1.323249191045761E-001;-9.589757770299912E-002;-3.926174249500036E-003;1.112934434786439E-003;
2.425333333333334E+009;1.310327351093292E-001;-9.634081274271011E-002;-3.653557971119881E-003;1.344255055300891E-003;
2.425500000000000E+009;1.296195536851883E-001;-9.727618843317032E-002;-3.614377230405808E-003;1.349497120827436E-003;
2.425666666666667E+009;1.280010640621185E-001;-9.796871989965439E-002;-3.745539812371135E-003;1.506188651546836E-003;
2.425833333333334E+009;1.266442984342575E-001;-9.876491874456406E-002;-3.773265983909369E-003;1.760539016686380E-003;
2.426000000000000E+009;1.252514123916626E-001;-9.984879940748215E-002;-3.643110161647201E-003;2.013572957366705E-003;
2.426166666666667E+009;1.239880323410034E-001;-1.009993404150009E-001;-3.394354600459337E-003;1.977524254471064E-003;
2.426333333333334E+009;1.226734146475792E-001;-1.021525487303734E-001;-3.456650534644723E-003;2.169864717870951E-003;
2.426500000000000E+009;1.213919669389725E-001;-1.036549434065819E-001;-3.252156544476748E-003;2.252424834296107E-003;
2.426666666666667E+009;1.203674525022507E-001;-1.049475297331810E-001;-3.188072005286813E-003;2.361317398026586E-003;
2.426833333333334E+009;1.192695200443268E-001;-1.064542308449745E-001;-2.950826426967979E-003;2.483857329934835E-003;
2.427000000000000E+009;1.180554553866386E-001;-1.081642657518387E-001;-2.982096280902624E-003;2.565851202234626E-003;
2.427166666666667E+009;1.171917393803597E-001;-1.096867695450783E-001;-2.774125197902322E-003;2.801814582198858E-003;
2.427333333333334E+009;1.161823794245720E-001;-1.112960204482079E-001;-2.707644132897258E-003;2.783906878903508E-003;
2.427500000000000E+009;1.155187860131264E-001;-1.130520775914192E-001;-2.679632743820548E-003;2.860990818589926E-003;
2.427666666666667E+009;1.147720441222191E-001;-1.147935241460800E-001;-2.445926656946540E-003;2.759006340056658E-003;
