# Version 1.00
#
freq[Hz];re:Trc1_S11;im:Trc1_S11;re:Trc2_S21;im:Trc2_S21;
2.400000000000000E+009;1.688508242368698E-001;4.687401652336121E-002;4.547380842268467E-003;4.948356188833714E-003;
2.400166666666667E+009;1.700354665517807E-001;4.607954621315002E-002;4.683820065110922E-003;4.805297125130892E-003;
2.400333333333334E+009;1.708720773458481E-001;4.481523483991623E-002;4.976992029696703E-003;4.558336921036243E-003;
2.400500000000000E+009;1.717322617769241E-001;4.395330324769020E-002;4.965145606547594E-003;4.262372851371765E-003;
2.400666666666667E+009;1.726359874010086E-001;4.287006705999374E-002;5.074450280517340E-003;4.036738537251949E-003;
2.400833333333334E+009;1.734453737735748E-001;4.229394346475601E-002;5.093899555504322E-003;3.899382660165429E-003;
2.401000000000000E+009;1.742496937513351E-001;4.137175157666206E-002;5.110358819365501E-003;3.545832820236683E-003;
2.401166666666667E+009;1.749518364667893E-001;4.062636569142342E-002;5.241042934358120E-003;3.471979871392250E-003;
2.401333333333334E+009;1.755554229021072E-001;3.984371572732925E-002;5.482729058712721E-003;3.202829509973526E-003;
2.401500000000000E+009;1.762918829917908E-001;3.930627927184105E-002;5.594011396169663E-003;2.920631086453795E-003;
2.401666666666667E+009;1.768373847007752E-001;3.861598297953606E-002;5.506315734237433E-003;2.886150032281876E-003;
2.401833333333334E+009;1.773282587528229E-001;3.803053125739098E-002;5.503602791577578E-003;2.553652506321669E-003;
2.402000000000000E+009;1.777262091636658E-001;3.746680170297623E-002;5.683881696313620E-003;2.239353023469448E-003;
2.402166666666667E+009;1.779937744140625E-001;3.665551915764809E-002;5.589431617408991E-003;2.033549593761563E-003;
2.402333333333334E+009;1.783365011215210E-001;3.620335087180138E-002;5.730167496949434E-003;1.946004922501743E-003;
2.402500000000000E+009;1.788205504417419E-001;3.543207049369812E-002;5.698223132640123E-003;1.678011845797300E-003;
2.402666666666667E+009;1.791797727346420E-001;3.492281958460808E-002;5.511126946657896E-003;1.335840555839241E-003;
2.402833333333334E+009;1.791360676288605E-001;3.409044072031975E-002;5.457359366118908E-003;9.957660222426057E-004;
2.403000000000000E+009;1.790093183517456E-001;3.326791897416115E-002;5.308076273649931E-003;7.383082993328571E-004;
2.403166666666667E+009;1.791643351316452E-001;3.253804892301559E-002;5.358661059290171E-003;7.093242020346224E-004;
2.403333333333334E+009;1.791189014911652E-001;3.162949159741402E-002;5.447336006909609E-003;6.487724604085088E-004;
2.403500000000000E+009;1.787224113941193E-001;3.073705360293388E-002;5.309656728059053E-003;3.332760534249246E-004;
2.403666666666667E+009;1.785331964492798E-001;2.966326288878918E-002;5.016628187149763E-003;8.797233749646694E-005;
2.403833333333334E+009;1.784377396106720E-001;2.864245511591435E-002;5.159427877515554E-003;-2.249285171274096E-005;
2.404000000000000E+009;1.779155284166336E-001;2.744552679359913E-002;4.894213285297155E-003;1.192099807667546E-005;
2.404166666666667E+009;1.776122003793716E-001;2.616611868143082E-002;4.872210323810577E-003;-3.763235872611404E-004;
2.404333333333334E+009;1.771788746118546E-001;2.510310895740986E-002;4.784146323800087E-003;-3.702547401189804E-004;
2.404500000000000E+009;1.768202036619186E-001;2.352258004248142E-002;4.685534164309502E-003;-5.392989842221141E-004;
2.404666666666667E+009;1.762606650590897E-001;2.203266136348248E-002;4.562926013022661E-003;-6.350486655719578E-004;
2.404833333333334E+009;1.758297085762024E-001;2.058799751102924E-002;4.561742302030325E-003;-6.398914265446365E-004;
2.405000000000000E+009;1.754139214754105E-001;1.911922544240952E-002;4.580048378556967E-003;-7.912629516795278E-004;
2.405166666666667E+009;1.749344319105148E-001;1.736420765519142E-002;4.186060745269060E-003;-7.776252459734678E-004;
2.405333333333334E+009;1.745890676975250E-001;1.572246104478836E-002;4.250125959515572E-003;-8.165702456608415E-004;
2.405500000000000E+009;1.741659939289093E-001;1.408510748296976E-002;4.043916240334511E-003;-8.181410958059132E-004;
2.405666666666667E+009;1.736942529678345E-001;1.235760748386383E-002;4.321012180298567E-003;-9.270176524296403E-004;
2.405833333333334E+009;1.734387725591660E-001;1.048549730330706E-002;3.987478092312813E-003;-9.485471528023481E-004;
2.406000000000000E+009;1.732322573661804E-001;8.558103814721108E-003;3.930702805519104E-003;-1.040848903357983E-003;
2.406166666666667E+009;1.729147434234619E-001;6.788455415517092E-003;3.894951427355409E-003;-1.045572687871754E-003;
2.406333333333334E+009;1.729201227426529E-001;4.796546883881092E-003;4.063543397933245E-003;-1.055560773238540E-003;
2.406500000000000E+009;1.727326810359955E-001;2.827933756634593E-003;3.992283716797829E-003;-1.202906249091029E-003;
2.406666666666667E+009;1.724749654531479E-001;8.684106869623065E-004;3.877747571095824E-003;-1.191714312881231E-003;
2.406833333333334E+009;1.727005094289780E-001;-1.306653139181435E-003;4.109792876988649E-003;-1.331008155830205E-003;
2.407000000000000E+009;1.727676689624786E-001;-3.226057626307011E-003;3.945112228393555E-003;-1.517664059065282E-003;
2.407166666666667E+009;1.730915307998657E-001;-5.364212673157454E-003;3.968522883951664E-003;-1.609040424227715E-003;
2.407333333333334E+009;1.732266694307327E-001;-7.427908480167389E-003;4.166172351688147E-003;-1.750936964526773E-003;
2.407500000000000E+009;1.734369099140167E-001;-9.488061070442200E-003;3.951911348849535E-003;-1.955340849235654E-003;
2.407666666666667E+009;1.738556325435638E-001;-1.151769608259201E-002;3.962174989283085E-003;-1.925745047628880E-003;
2.407833333333334E+009;1.741115301847458E-001;-1.370634138584137E-002;4.100580234080553E-003;-2.163646742701531E-003;
2.408000000000000E+009;1.745561510324478E-001;-1.577714830636978E-002;3.847285406664014E-003;-2.298952778801322E-003;
2.408166666666667E+009;1.748271435499191E-001;-1.764456368982792E-002;3.852957626804709E-003;-2.549743745476008E-003;
2.408333333333334E+009;1.754828542470932E-001;-1.962021179497242E-002;3.745416877791286E-003;-2.686033025383949E-003;
2.408500000000000E+009;1.759405136108398E-001;-2.157523110508919E-002;3.498829435557127E-003;-2.817754400894046E-003;
2.408666666666667E+009;1.764370203018189E-001;-2.327804267406464E-002;3.594125155359507E-003;-3.002172103151679E-003;
2.408833333333334E+009;1.766009777784348E-001;-2.506872080266476E-002;3.324651392176747E-003;-3.146469360217452E-003;
2.409000000000000E+009;1.771049052476883E-001;-2.668170072138310E-002;3.102719783782959E-003;-3.230558475479484E-003;
2.409166666666667E+009;1.776029914617539E-001;-2.823301963508129E-002;2.905598375946283E-003;-3.314209636300802E-003;
2.409333333333334E+009;1.781016439199448E-001;-2.947330474853516E-002;2.595474477857351E-003;-3.542022313922644E-003;
2.409500000000000E+009;1.783926635980606E-001;-3.101945854723454E-002;2.609759801998735E-003;-3.555870847776532E-003;
2.409666666666667E+009;1.788239628076553E-001;-3.198994323611260E-002;2.513305051252246E-003;-3.532435977831483E-003;
2.409833333333334E+009;1.791906654834747E-001;-3.307557851076126E-002;2.339367521926761E-003;-3.550183493643999E-003;
2.410000000000000E+009;1.798109263181686E-001;-3.396836295723915E-002;2.066584071144462E-003;-3.745126305148006E-003;
2.410166666666667E+009;1.801247894763947E-001;-3.472945094108582E-002;1.920753973536193E-003;-3.609947860240936E-003;
2.410333333333334E+009;1.805866509675980E-001;-3.574163466691971E-002;1.840032520703971E-003;-3.644524374976754E-003;
2.410500000000000E+009;1.809824407100678E-001;-3.630809485912323E-002;1.586787286214531E-003;-3.614391898736358E-003;
2.410666666666667E+009;1.812854856252670E-001;-3.713925182819367E-002;1.407397445291281E-003;-3.604719648137689E-003;
2.410833333333334E+009;1.817692667245865E-001;-3.743822872638702E-002;1.153888530097902E-003;-3.500392427667975E-003;
2.411000000000000E+009;1.819949150085449E-001;-3.815501928329468E-002;1.140115200541914E-003;-3.631716594099999E-003;
2.411166666666667E+009;1.820833086967468E-001;-3.862718120217323E-002;1.090461853891611E-003;-3.433448262512684E-003;
2.411333333333334E+009;1.821709275245667E-001;-3.898479044437408E-002;1.066883793100715E-003;-3.619916737079620E-003;
2.411500000000000E+009;1.823307275772095E-001;-3.962561488151550E-002;1.020137919113040E-003;-3.325032535940409E-003;
2.411666666666667E+009;1.823244243860245E-001;-3.984405472874641E-002;7.688061450608075E-004;-3.483422100543976E-003;
2.411833333333334E+009;1.822374463081360E-001;-4.012991487979889E-002;8.842251263558865E-004;-3.443477908149362E-003;
2.412000000000000E+009;1.820299774408341E-001;-4.059042781591415E-002;7.618880481459200E-004;-3.320320509374142E-003;
2.412166666666667E+009;1.816712021827698E-001;-4.104362800717354E-002;7.259369594976306E-004;-3.371084574609995E-003;
2.412333333333334E+009;1.813870370388031E-001;-4.111180827021599E-002;5.041285185143352E-004;-3.356837900355458E-003;
2.412500000000000E+009;1.806830614805222E-001;-4.174780473113060E-002;3.995207080151886E-004;-3.333172993734479E-003;
2.412666666666667E+009;1.801977902650833E-001;-4.217981547117233E-002;5.293579888530076E-004;-3.144270973280072E-003;
2.412833333333334E+009;1.794714331626892E-001;-4.248376935720444E-002;2.722091448958963E-004;-3.360009286552668E-003;
2.413000000000000E+009;1.788618117570877E-001;-4.292485490441322E-002;1.443480432499200E-004;-3.275565337389708E-003;
2.413166666666667E+009;1.778952777385712E-001;-4.335143789649010E-002;4.478052142076194E-005;-3.215194679796696E-003;
2.413333333333334E+009;1.768377125263214E-001;-4.369604587554932E-002;1.250517525477335E-004;-3.226569155231118E-003;
2.413500000000000E+009;1.757472604513168E-001;-4.432333260774612E-002;-1.742751628626138E-004;-3.004135563969612E-003;
2.413666666666667E+009;1.749599128961563E-001;-4.483703896403313E-002;-6.689151632599533E-005;-3.055261448025703E-003;
2.413833333333334E+009;1.736126542091370E-001;-4.550869017839432E-002;-1.120753804570995E-004;-3.003721823915839E-003;
2.414000000000000E+009;1.723191738128662E-001;-4.622018337249756E-002;-3.033093526028097E-004;-2.962330356240273E-003;
2.414166666666667E+009;1.714027225971222E-001;-4.686278104782105E-002;-2.305307280039415E-004;-2.897248603403568E-003;
2.414333333333334E+009;1.701211631298065E-001;-4.792356491088867E-002;-2.755805617198348E-004;-2.720388351008296E-003;
2.414500000000000E+009;1.690548360347748E-001;-4.871954768896103E-002;-3.730352909769863E-004;-2.840902656316757E-003;
2.414666666666667E+009;1.677693277597427E-001;-4.958928376436234E-002;-2.362865343457088E-004;-2.699478762224317E-003;
2.414833333333334E+009;1.664446592330933E-001;-5.084210634231567E-002;-3.716683131642640E-004;-2.628543647006154E-003;
2.415000000000000E+009;1.652317047119141E-001;-5.185218900442123E-002;-2.254741848446429E-004;-2.590257907286286E-003;
2.415166666666667E+009;1.639614254236221E-001;-5.334520712494850E-002;-2.473458589520305E-004;-2.608442446216941E-003;
2.415333333333334E+009;1.630185991525650E-001;-5.476592853665352E-002;-1.526728156022728E-004;-2.578380284830928E-003;
2.415500000000000E+009;1.618209183216095E-001;-5.610634759068489E-002;-3.044790646526963E-004;-2.706618048250675E-003;
2.415666666666667E+009;1.606301665306091E-001;-5.746835842728615E-002;-1.932405866682529E-004;-2.741142874583602E-003;
2.415833333333334E+009;1.596376895904541E-001;-5.929799750447273E-002;-2.168546634493396E-004;-2.699971897527576E-003;
2.416000000000000E+009;1.583555787801743E-001;-6.106401979923248E-002;-2.762708463706076E-004;-2.932651899755001E-003;
2.416166666666667E+009;1.574946492910385E-001;-6.263895332813263E-002;-1.637887617107481E-004;-2.739572664722800E-003;
2.416333333333334E+009;1.565661728382111E-001;-6.445637345314026E-002;-2.357914927415550E-004;-2.897025551646948E-003;
2.416500000000000E+009;1.557441502809525E-001;-6.646382063627243E-002;-3.583453653845936E-004;-3.084633965045214E-003;
2.416666666666667E+009;1.548341512680054E-001;-6.819833070039749E-002;-3.088249650318176E-004;-2.964045852422714E-003;
2.416833333333334E+009;1.540692150592804E-001;-7.043730467557907E-002;-4.505789838731289E-004;-3.122015157714486E-003;
2.417000000000000E+009;1.531727313995361E-001;-7.235071808099747E-002;-4.913163138553500E-004;-3.258587559685111E-003;
2.417166666666667E+009;1.525634527206421E-001;-7.421503961086273E-002;-6.307009607553482E-004;-3.357636742293835E-003;
2.417333333333334E+009;1.520345062017441E-001;-7.610758394002914E-002;-8.286722004413605E-004;-3.372131381183863E-003;
2.417500000000000E+009;1.514474302530289E-001;-7.823271304368973E-002;-8.136028773151338E-004;-3.417289815843105E-003;
2.417666666666667E+009;1.511334478855133E-001;-7.989969849586487E-002;-1.054920954629779E-003;-3.322456264868379E-003;
2.417833333333334E+009;1.508166193962097E-001;-8.181735128164291E-002;-1.121700159274042E-003;-3.342049429193139E-003;
2.418000000000000E+009;1.502909511327744E-001;-8.367586135864258E-002;-1.200408558361232E-003;-3.435193793848157E-003;
2.418166666666667E+009;1.501425355672836E-001;-8.527586609125137E-002;-1.415477134287357E-003;-3.617801470682025E-003;
2.418333333333334E+009;1.501447707414627E-001;-8.717585355043411E-002;-1.607217011041939E-003;-3.605328267440200E-003;
2.418500000000000E+009;1.498638838529587E-001;-8.856524527072907E-002;-1.740134321153164E-003;-3.514066571369767E-003;
2.418666666666667E+009;1.499332934617996E-001;-9.026208519935608E-002;-1.917083864100277E-003;-3.549369983375073E-003;
2.418833333333334E+009;1.497959643602371E-001;-9.164998680353165E-002;-2.002431778237224E-003;-3.458262188360095E-003;
2.419000000000000E+009;1.498149186372757E-001;-9.291270375251770E-002;-2.311716321855784E-003;-3.361801616847515E-003;
2.419166666666667E+009;1.499641090631485E-001;-9.411246329545975E-002;-2.409210195764899E-003;-3.387484466657043E-003;
2.419333333333334E+009;1.499728709459305E-001;-9.498556703329086E-002;-2.726147882640362E-003;-3.237453987821937E-003;
2.419500000000000E+009;1.502114236354828E-001;-9.618903696537018E-002;-2.963970648124814E-003;-3.229124937206507E-003;
2.419666666666667E+009;1.506019085645676E-001;-9.712289273738861E-002;-3.058998612686992E-003;-2.974777948111296E-003;
2.419833333333334E+009;1.507152169942856E-001;-9.778729081153870E-002;-3.165602218359709E-003;-2.828039927408099E-003;
2.420000000000000E+009;1.510915905237198E-001;-9.837765246629715E-002;-3.312615910544992E-003;-2.744506346061826E-003;
2.420166666666667E+009;1.513224244117737E-001;-9.901034086942673E-002;-3.486528759822249E-003;-2.430917462334037E-003;
2.420333333333334E+009;1.517193615436554E-001;-9.944645315408707E-002;-3.678432200103998E-003;-2.434014109894633E-003;
2.420500000000000E+009;1.519506722688675E-001;-9.963610023260117E-002;-3.673748346045613E-003;-2.193007152527571E-003;
2.420666666666667E+009;1.521678119897842E-001;-9.964774549007416E-002;-3.692979225888848E-003;-2.209591213613749E-003;
2.420833333333334E+009;1.524640470743179E-001;-9.983635693788528E-002;-3.830249188467860E-003;-1.949957804754376E-003;
2.421000000000000E+009;1.526494324207306E-001;-1.000291258096695E-001;-3.754863049834967E-003;-1.576536335051060E-003;
2.421166666666667E+009;1.529882997274399E-001;-1.001293361186981E-001;-3.768962575122714E-003;-1.535798073746264E-003;
2.421333333333334E+009;1.532939225435257E-001;-9.984050691127777E-002;-3.866301616653800E-003;-1.295984722673893E-003;
2.421500000000000E+009;1.531492918729782E-001;-9.967332333326340E-002;-4.069339949637651E-003;-1.153374090790749E-003;
2.421666666666667E+009;1.532440781593323E-001;-9.953728318214417E-002;-3.818911965936422E-003;-8.923351997509599E-004;
2.421833333333334E+009;1.531226336956024E-001;-9.934689104557037E-002;-3.889903426170349E-003;-7.653645589016378E-004;
2.422000000000000E+009;1.529274135828018E-001;-9.909781068563461E-002;-3.851489396765828E-003;-5.356622277759016E-004;
2.422166666666667E+009;1.526021510362625E-001;-9.889292716979981E-002;-3.889963496476412E-003;-4.287808551453054E-004;
2.422333333333334E+009;1.522459387779236E-001;-9.852972626686096E-002;-3.766784444451332E-003;-4.244356532581151E-004;
2.422500000000000E+009;1.516921967267990E-001;-9.814410656690598E-002;-3.761031432077289E-003;-4.086841654498130E-004;
2.422666666666667E+009;1.510290801525116E-001;-9.784010797739029E-002;-3.750162897631526E-003;-2.319352061022073E-004;
2.422833333333334E+009;1.503776609897614E-001;-9.746541082859039E-002;-3.622737014666200E-003;-7.646439917152748E-005;
2.423000000000000E+009;1.494462788105011E-001;-9.698223322629929E-002;-3.684069029986858E-003;-2.306103124283254E-004;
2.423166666666667E+009;1.487279087305069E-001;-9.677357971668243E-002;-3.610732033848763E-003;-7.352135435212404E-005;
2.423333333333334E+009;1.477133333683014E-001;-9.637051075696945E-002;-3.742144210264087E-003;-7.094314059941098E-005;
2.423500000000000E+009;1.465351730585098E-001;-9.604695439338684E-002;-3.641715971753001E-003;3.092466795351356E-005;
2.423666666666667E+009;1.451462656259537E-001;-9.583938121795654E-002;-3.571649314835668E-003;1.848292740760371E-004;
2.423833333333334E+009;1.440210640430450E-001;-9.544866532087326E-002;-3.687071381136775E-003;2.462876436766237E-004;
2.424000000000000E+009;1.427513062953949E-001;-9.508004784584045E-002;-3.561848541721702E-003;3.255543124396354E-004;
2.424166666666667E+009;1.413164734840393E-001;-9.503950923681259E-002;-3.667584620416164E-003;3.324962162878364E-004;
2.424333333333334E+009;1.399641931056976E-001;-9.477391839027405E-002;-3.853601869195700E-003;4.949088324792683E-004;
2.424500000000000E+009;1.384844630956650E-001;-9.487427771091461E-002;-3.852148074656725E-003;5.932797212153673E-004;
2.424666666666667E+009;1.370887160301209E-001;-9.495148062705994E-002;-3.761400468647480E-003;7.248814217746258E-004;
2.424833333333334E+009;1.354178190231323E-001;-9.506313502788544E-002;-3.686243202537298E-003;8.256728760898113E-004;
2.425000000000000E+009;1.341210752725601E-001;-9.555581212043762E-002;-3.884665435180068E-003;9.948527440428734E-004;
2.425166666666667E+009;1.324308216571808E-001;-9.594529122114182E-002;-3.943875432014465E-003;1.159107196144760E-003;
2.425333333333334E+009;1.310888528823853E-001;-9.658666700124741E-002;-3.654376370832324E-003;1.256176386959851E-003;
2.425500000000000E+009;1.296629011631012E-001;-9.722686558961868E-002;-3.679452696815133E-003;1.416914630681276E-003;
2.425666666666667E+009;1.280556172132492E-001;-9.785668551921845E-002;-3.669544588774443E-003;1.577743096277118E-003;
2.425833333333334E+009;1.265754103660584E-001;-9.885662794113159E-002;-3.750212257727981E-003;1.788801280781627E-003;
2.426000000000000E+009;1.252708435058594E-001;-9.987968206405640E-002;-3.618696704506874E-003;1.900842180475593E-003;
2.426166666666667E+009;1.239931285381317E-001;-1.010517179965973E-001;-3.462765133008361E-003;2.034970792010427E-003;
2.426333333333334E+009;1.226781904697418E-001;-1.022409349679947E-001;-3.485076827928424E-003;2.340830862522125E-003;
2.426500000000000E+009;1.214110031723976E-001;-1.035330519080162E-001;-3.270492656156421E-003;2.287337556481361E-003;
2.426666666666667E+009;1.203710883855820E-001;-1.049476265907288E-001;-3.202034626156092E-003;2.535146428272128E-003;
2.426833333333334E+009;1.192066818475723E-001;-1.063849553465843E-001;-3.137360792607069E-003;2.668527420610189E-003;
2.427000000000000E+009;1.180259436368942E-001;-1.080375537276268E-001;-2.869880525395274E-003;2.782448660582304E-003;
2.427166666666667E+009;1.171920821070671E-001;-1.095705255866051E-001;-2.684518927708268E-003;2.758219372481108E-003;
2.427333333333334E+009;1.162260696291924E-001;-1.112753823399544E-001;-2.721600700169802E-003;2.847810043022037E-003;
2.427500000000000E+009;1.155674234032631E-001;-1.130424514412880E-001;-2.489562379196286E-003;2.902696374803782E-003;
2.427666666666667E+009;1.148511394858360E-001;-1.147614046931267E-001;-2.541919704526663E-003;2.915431745350361E-003;
