# Version 1.00
#
freq[Hz];re:Trc1_S11;im:Trc1_S11;re:Trc2_S21;im:Trc2_S21;
2.400000000000000E+009;1.554733365774155E-001;1.063508689403534E-001;-4.959131591022015E-003;-3.760844469070435E-003;
2.400166666666667E+009;1.550033837556839E-001;1.041208952665329E-001;-5.251746624708176E-003;-3.408141899853945E-003;
2.400333333333334E+009;1.549434810876846E-001;1.016990393400192E-001;-5.466262809932232E-003;-3.193147946149111E-003;
2.400500000000000E+009;1.549315750598908E-001;9.909843653440476E-002;-5.635743960738182E-003;-2.853743964806199E-003;
2.400666666666667E+009;1.550021618604660E-001;9.656926244497299E-002;-5.750135052949190E-003;-2.488100901246071E-003;
2.400833333333334E+009;1.549781560897827E-001;9.375324100255966E-002;-5.934515967965126E-003;-2.009007148444653E-003;
2.401000000000000E+009;1.551407128572464E-001;9.087863564491272E-002;-5.817368626594544E-003;-1.682148547843099E-003;
2.401166666666667E+009;1.551435887813568E-001;8.809268474578857E-002;-5.962487310171127E-003;-1.187132555060089E-003;
2.401333333333334E+009;1.555809825658798E-001;8.530649542808533E-002;-6.026572547852993E-003;-9.736142819747329E-004;
2.401500000000000E+009;1.559454500675201E-001;8.235327899456024E-002;-5.740714725106955E-003;-4.326784110162407E-004;
2.401666666666667E+009;1.565313786268234E-001;7.945723086595535E-002;-5.655693821609020E-003;-1.935682230396196E-004;
2.401833333333334E+009;1.567257195711136E-001;7.691907137632370E-002;-5.594044923782349E-003;7.587084837723523E-005;
2.402000000000000E+009;1.575819104909897E-001;7.401392608880997E-002;-5.304340273141861E-003;2.739104093052447E-004;
2.402166666666667E+009;1.583778262138367E-001;7.152229547500610E-002;-5.007185507565737E-003;4.755128757096827E-004;
2.402333333333334E+009;1.594309657812119E-001;6.859991699457169E-002;-4.788551479578018E-003;5.311123095452786E-004;
2.402500000000000E+009;1.606399565935135E-001;6.630190461874008E-002;-4.581821151077747E-003;6.538354209624231E-004;
2.402666666666667E+009;1.617105305194855E-001;6.382535398006439E-002;-4.451634362339973E-003;7.477459730580449E-004;
2.402833333333334E+009;1.629846245050430E-001;6.130125746130943E-002;-4.309700336307287E-003;6.963057676330209E-004;
2.403000000000000E+009;1.645418703556061E-001;5.896246805787087E-002;-4.188007209450007E-003;8.625928894616664E-004;
2.403166666666667E+009;1.663722097873688E-001;5.686354637145996E-002;-4.199433606117964E-003;7.105846889317036E-004;
2.403333333333334E+009;1.676880419254303E-001;5.453349649906158E-002;-3.980195615440607E-003;7.383025367744267E-004;
2.403500000000000E+009;1.693505644798279E-001;5.257775261998177E-002;-3.885369282215834E-003;7.957568741403520E-004;
2.403666666666667E+009;1.711287945508957E-001;5.052226036787033E-002;-3.956416156142950E-003;7.295192917808890E-004;
2.403833333333334E+009;1.726033687591553E-001;4.866160824894905E-002;-3.824513405561447E-003;6.949654198251665E-004;
2.404000000000000E+009;1.739462614059448E-001;4.689276218414307E-002;-3.940494731068611E-003;7.355967536568642E-004;
2.404166666666667E+009;1.759808212518692E-001;4.540628939867020E-002;-3.875165944918990E-003;9.090499370358884E-004;
2.404333333333334E+009;1.776283830404282E-001;4.386381804943085E-002;-3.946532029658556E-003;1.137406798079610E-003;
2.404500000000000E+009;1.791611015796661E-001;4.256215691566467E-002;-3.858703654259443E-003;1.186153618618846E-003;
2.404666666666667E+009;1.808881461620331E-001;4.148404672741890E-002;-3.967487253248692E-003;1.191167742945254E-003;
2.404833333333334E+009;1.825301796197891E-001;4.020827636122704E-002;-3.877863753587008E-003;1.154433586634696E-003;
2.405000000000000E+009;1.837832033634186E-001;3.968342766165733E-002;-3.939352929592133E-003;1.348474528640509E-003;
2.405166666666667E+009;1.853655576705933E-001;3.904483094811440E-002;-3.794918302446604E-003;1.614499837160111E-003;
2.405333333333334E+009;1.866704374551773E-001;3.841751441359520E-002;-3.717447863891721E-003;1.648559467867017E-003;
2.405500000000000E+009;1.882237344980240E-001;3.814294189214706E-002;-3.600072348490357E-003;1.740149455145001E-003;
2.405666666666667E+009;1.893202066421509E-001;3.765036538243294E-002;-3.556502750143409E-003;1.835632254369557E-003;
2.405833333333334E+009;1.905606836080551E-001;3.740988671779633E-002;-3.534259507432580E-003;1.978169428184629E-003;
2.406000000000000E+009;1.917580813169479E-001;3.731149435043335E-002;-3.248428227379918E-003;1.870220759883523E-003;
2.406166666666667E+009;1.926573514938355E-001;3.712103515863419E-002;-3.103709081187844E-003;2.004444133490324E-003;
2.406333333333334E+009;1.935665160417557E-001;3.718470782041550E-002;-3.108658595010638E-003;2.038650913164020E-003;
2.406500000000000E+009;1.942662149667740E-001;3.733510151505470E-002;-2.953245770186186E-003;2.052489900961518E-003;
2.406666666666667E+009;1.949356496334076E-001;3.730146214365959E-002;-2.921944484114647E-003;1.988941105082631E-003;
2.406833333333334E+009;1.954524517059326E-001;3.745289891958237E-002;-2.773376414552331E-003;1.954259118065238E-003;
2.407000000000000E+009;1.957696974277496E-001;3.751808404922485E-002;-2.659459598362446E-003;2.034359844401479E-003;
2.407166666666667E+009;1.959767937660217E-001;3.735221922397614E-002;-2.601026557385922E-003;1.923998701386154E-003;
2.407333333333334E+009;1.960735321044922E-001;3.764509782195091E-002;-2.767155179753900E-003;1.934644766151905E-003;
2.407500000000000E+009;1.959703862667084E-001;3.774428367614746E-002;-2.608621492981911E-003;1.848884625360370E-003;
2.407666666666667E+009;1.960642188787460E-001;3.773092851042748E-002;-2.704356797039509E-003;1.799621502868831E-003;
2.407833333333334E+009;1.955568045377731E-001;3.771053627133369E-002;-2.602811669930816E-003;1.635201973840594E-003;
2.408000000000000E+009;1.955391913652420E-001;3.752980008721352E-002;-2.647869987413287E-003;1.707269810140133E-003;
2.408166666666667E+009;1.947356462478638E-001;3.724882379174233E-002;-2.905242610722780E-003;1.813122304156423E-003;
2.408333333333334E+009;1.944510191679001E-001;3.677839040756226E-002;-2.834846032783389E-003;1.639739261008799E-003;
2.408500000000000E+009;1.936246901750565E-001;3.654729947447777E-002;-3.027270315214992E-003;1.745599904097617E-003;
2.408666666666667E+009;1.930731534957886E-001;3.593569248914719E-002;-3.027437720447779E-003;1.654968713410199E-003;
2.408833333333334E+009;1.923674941062927E-001;3.535789623856545E-002;-3.210521535947919E-003;1.702075591310859E-003;
2.409000000000000E+009;1.913994848728180E-001;3.442355245351791E-002;-3.480246290564537E-003;1.871917862445116E-003;
2.409166666666667E+009;1.905241310596466E-001;3.348687663674355E-002;-3.343766322359443E-003;2.054692246019840E-003;
2.409333333333334E+009;1.895289719104767E-001;3.249989449977875E-002;-3.509711008518934E-003;2.115816809237003E-003;
2.409500000000000E+009;1.885062307119370E-001;3.116725571453571E-002;-3.555447328835726E-003;2.189511666074395E-003;
2.409666666666667E+009;1.874354928731918E-001;2.990170009434223E-002;-3.622552612796426E-003;2.515780273824930E-003;
2.409833333333334E+009;1.864095628261566E-001;2.839952893555164E-002;-3.475958947092295E-003;2.670730929821730E-003;
2.410000000000000E+009;1.854937374591827E-001;2.681053243577480E-002;-3.703405149281025E-003;2.841074718162417E-003;
2.410166666666667E+009;1.843675225973129E-001;2.490856125950813E-002;-3.665166907012463E-003;3.052489599213004E-003;
2.410333333333334E+009;1.835508048534393E-001;2.318916656076908E-002;-3.707778407260776E-003;3.294358495622873E-003;
2.410500000000000E+009;1.824238598346710E-001;2.118170261383057E-002;-3.609085455536842E-003;3.547887085005641E-003;
2.410666666666667E+009;1.815620809793472E-001;1.883113570511341E-002;-3.522170241922140E-003;3.740168409422040E-003;
2.410833333333334E+009;1.808979809284210E-001;1.667155139148235E-002;-3.407021984457970E-003;4.075829405337572E-003;
2.411000000000000E+009;1.802666634321213E-001;1.469568908214569E-002;-3.367676632478833E-003;4.166354890912771E-003;
2.411166666666667E+009;1.796480119228363E-001;1.225245278328657E-002;-3.195425262674689E-003;4.428654443472624E-003;
2.411333333333334E+009;1.790706068277359E-001;9.753536432981491E-003;-3.064899705350399E-003;4.503779113292694E-003;
2.411500000000000E+009;1.786669045686722E-001;7.412271574139595E-003;-2.784285694360733E-003;4.746960941702128E-003;
2.411666666666667E+009;1.783493310213089E-001;4.934282973408699E-003;-2.638315549120307E-003;4.927154164761305E-003;
2.411833333333334E+009;1.779970079660416E-001;2.629067748785019E-003;-2.436258364468813E-003;4.912656731903553E-003;
2.412000000000000E+009;1.783609092235565E-001;2.471362677169964E-005;-2.207576530054212E-003;5.061735864728689E-003;
2.412166666666667E+009;1.782454997301102E-001;-2.349099144339562E-003;-1.932740677148104E-003;5.140480585396290E-003;
2.412333333333334E+009;1.785070598125458E-001;-4.929134156554937E-003;-1.737685757689178E-003;5.262502003461123E-003;
2.412500000000000E+009;1.790890693664551E-001;-7.290486712008715E-003;-1.566979102790356E-003;5.286889616400003E-003;
2.412666666666667E+009;1.795307695865631E-001;-9.694946929812431E-003;-1.310908817686141E-003;5.360921844840050E-003;
2.412833333333334E+009;1.800618916749954E-001;-1.223415136337280E-002;-1.327343168668449E-003;5.481958854943514E-003;
2.413000000000000E+009;1.809214204549789E-001;-1.469300966709852E-002;-9.926849743351340E-004;5.341627169400454E-003;
2.413166666666667E+009;1.818021088838577E-001;-1.680672913789749E-002;-7.395392749458551E-004;5.281537771224976E-003;
2.413333333333334E+009;1.826992630958557E-001;-1.923100464046001E-002;-6.158981705084443E-004;5.269713234156370E-003;
2.413500000000000E+009;1.837150007486343E-001;-2.147601731121540E-002;-5.013424670323730E-004;5.350568797439337E-003;
2.413666666666667E+009;1.848692297935486E-001;-2.386380173265934E-002;-2.991405490320176E-004;5.412948783487082E-003;
2.413833333333334E+009;1.858942061662674E-001;-2.579939179122448E-002;-1.852651330409572E-004;5.334930028766394E-003;
2.414000000000000E+009;1.870474219322205E-001;-2.769094519317150E-002;-1.544817787362263E-004;5.386726465076208E-003;
2.414166666666667E+009;1.883908957242966E-001;-2.944614179432392E-002;-7.373140397248790E-005;5.474421661347151E-003;
2.414333333333334E+009;1.894767582416534E-001;-3.150161355733872E-002;9.063044126378372E-005;5.560406018048525E-003;
2.414500000000000E+009;1.907556354999542E-001;-3.298811614513397E-002;1.694442617008463E-004;5.558545235544443E-003;
2.414666666666667E+009;1.918801516294479E-001;-3.453493490815163E-002;4.169808235019445E-004;5.703581962734461E-003;
2.414833333333334E+009;1.931135803461075E-001;-3.584583103656769E-002;8.100696140900254E-004;5.703839939087629E-003;
2.415000000000000E+009;1.942399442195892E-001;-3.714278340339661E-002;9.857278782874346E-004;5.604074802249670E-003;
2.415166666666667E+009;1.953589767217636E-001;-3.826935589313507E-002;1.120348111726344E-003;5.721954163163900E-003;
2.415333333333334E+009;1.965001225471497E-001;-3.917400166392326E-002;1.479671103879809E-003;5.837275180965662E-003;
2.415500000000000E+009;1.976316124200821E-001;-3.989893198013306E-002;1.687058014795184E-003;5.689581856131554E-003;
2.415666666666667E+009;1.987392604351044E-001;-4.085222259163857E-002;2.008214360103011E-003;5.662495270371437E-003;
2.415833333333334E+009;1.995122134685516E-001;-4.124445095658302E-002;2.217614091932774E-003;5.629090126603842E-003;
2.416000000000000E+009;2.002992928028107E-001;-4.188935831189156E-002;2.651876071467996E-003;5.503775551915169E-003;
2.416166666666667E+009;2.010791599750519E-001;-4.245609045028687E-002;2.878670347854495E-003;5.231339950114489E-003;
2.416333333333334E+009;2.016026079654694E-001;-4.257130622863770E-002;2.922112587839365E-003;5.121944006532431E-003;
2.416500000000000E+009;2.021406739950180E-001;-4.287724569439888E-002;3.342428244650364E-003;5.016382317990065E-003;
2.416666666666667E+009;2.024201601743698E-001;-4.327937215566635E-002;3.512501483783126E-003;4.799547139555216E-003;
2.416833333333334E+009;2.025459408760071E-001;-4.328078404068947E-002;3.613017033785582E-003;4.526351578533649E-003;
2.417000000000000E+009;2.027282118797302E-001;-4.338411986827850E-002;3.749897703528404E-003;4.387035965919495E-003;
2.417166666666667E+009;2.023356705904007E-001;-4.318482056260109E-002;3.837900934740901E-003;4.091652110219002E-003;
2.417333333333334E+009;2.021707594394684E-001;-4.291573911905289E-002;3.996346611529589E-003;3.958390094339848E-003;
2.417500000000000E+009;2.018891572952271E-001;-4.289042577147484E-002;4.039267078042030E-003;3.708879463374615E-003;
2.417666666666667E+009;2.013289630413055E-001;-4.270556569099426E-002;4.114564508199692E-003;3.486624220386148E-003;
2.417833333333334E+009;2.008753418922424E-001;-4.248902946710587E-002;4.245498683303595E-003;3.144330112263560E-003;
2.418000000000000E+009;2.003295421600342E-001;-4.222202301025391E-002;4.248779732733965E-003;3.169345669448376E-003;
2.418166666666667E+009;1.994536370038986E-001;-4.217439889907837E-002;4.400077275931835E-003;2.894585952162743E-003;
2.418333333333334E+009;1.984886676073074E-001;-4.189978912472725E-002;4.383973777294159E-003;2.575239399448037E-003;
2.418500000000000E+009;1.974941492080689E-001;-4.187833145260811E-002;4.232947248965502E-003;2.666086191311479E-003;
2.418666666666667E+009;1.965678632259369E-001;-4.181692749261856E-002;4.315829370170832E-003;2.393608912825584E-003;
2.418833333333334E+009;1.953416913747788E-001;-4.196780920028687E-002;4.257995635271072E-003;2.199079608544707E-003;
2.419000000000000E+009;1.939796805381775E-001;-4.210566729307175E-002;4.242781549692154E-003;2.097936579957604E-003;
2.419166666666667E+009;1.927411258220673E-001;-4.245043918490410E-002;4.217506852000952E-003;2.030920004472137E-003;
2.419333333333334E+009;1.913799792528153E-001;-4.292171075940132E-002;4.274006001651287E-003;1.814982504583895E-003;
2.419500000000000E+009;1.898479312658310E-001;-4.337256029248238E-002;4.260861314833164E-003;1.706031383946538E-003;
2.419666666666667E+009;1.882498711347580E-001;-4.418454691767693E-002;4.298926331102848E-003;1.548622851260006E-003;
2.419833333333334E+009;1.866118162870407E-001;-4.484232142567635E-002;4.202355165034533E-003;1.536039519123733E-003;
2.420000000000000E+009;1.849674433469772E-001;-4.571524634957314E-002;3.994963597506285E-003;1.275666872970760E-003;
2.420166666666667E+009;1.833936870098114E-001;-4.656255245208740E-002;4.332039039582014E-003;1.154969562776387E-003;
2.420333333333334E+009;1.818287521600723E-001;-4.777603223919869E-002;4.159356467425823E-003;9.782405104488134E-004;
2.420500000000000E+009;1.801656633615494E-001;-4.907687008380890E-002;4.359316546469927E-003;9.966588113456965E-004;
2.420666666666667E+009;1.784631311893463E-001;-5.015706643462181E-002;4.120504949241877E-003;7.466556271538138E-004;
2.420833333333334E+009;1.769553124904633E-001;-5.174735933542252E-002;4.009962081909180E-003;6.144010112620890E-004;
2.421000000000000E+009;1.753923594951630E-001;-5.328392982482910E-002;4.006781615316868E-003;4.761847376357764E-004;
2.421166666666667E+009;1.739218980073929E-001;-5.503053963184357E-002;3.768129739910364E-003;3.172477008774877E-004;
2.421333333333334E+009;1.723646521568298E-001;-5.668165907263756E-002;3.675163490697742E-003;1.802750339265913E-004;
2.421500000000000E+009;1.710919141769409E-001;-5.844064429402351E-002;3.384222043678165E-003;1.391209079883993E-004;
2.421666666666667E+009;1.699425876140595E-001;-6.030591577291489E-002;3.312116721644998E-003;2.479311951901764E-004;
2.421833333333334E+009;1.686706990003586E-001;-6.213865056633949E-002;3.173271194100380E-003;2.744180965237320E-004;
2.422000000000000E+009;1.677424907684326E-001;-6.410543620586395E-002;3.048006445169449E-003;3.610901476349682E-004;
2.422166666666667E+009;1.667769551277161E-001;-6.634832918643951E-002;3.118135733529925E-003;3.637773334048688E-004;
2.422333333333334E+009;1.657583117485046E-001;-6.832430511713028E-002;2.868841402232647E-003;3.799274272751063E-004;
2.422500000000000E+009;1.649506241083145E-001;-7.035616785287857E-002;2.873238874599338E-003;4.519540816545487E-004;
2.422666666666667E+009;1.642968058586121E-001;-7.240660488605499E-002;2.802585484459996E-003;4.841632035095245E-004;
2.422833333333334E+009;1.638708412647247E-001;-7.458890974521637E-002;2.914355834946036E-003;5.125908064655960E-004;
2.423000000000000E+009;1.634373068809509E-001;-7.658135145902634E-002;2.926553133875132E-003;7.373674307018518E-004;
2.423166666666667E+009;1.631146669387817E-001;-7.851385325193405E-002;2.941710408776999E-003;6.417663535103202E-004;
2.423333333333334E+009;1.627332866191864E-001;-8.055792003870010E-002;3.172248369082809E-003;8.016773499548435E-004;
2.423500000000000E+009;1.627337485551834E-001;-8.239860087633133E-002;3.071228740736842E-003;6.007052725180984E-004;
2.423666666666667E+009;1.628021001815796E-001;-8.441224694252014E-002;3.140349406749010E-003;8.218414150178433E-004;
2.423833333333334E+009;1.626777201890945E-001;-8.590044081211090E-002;3.249134635552764E-003;7.797095458954573E-004;
2.424000000000000E+009;1.629085391759872E-001;-8.786015957593918E-002;3.479334525763989E-003;8.681635954417288E-004;
2.424166666666667E+009;1.629704535007477E-001;-8.951172232627869E-002;3.506597597151995E-003;9.070403757505119E-004;
2.424333333333334E+009;1.632214188575745E-001;-9.095581620931625E-002;3.618347924202681E-003;6.996791344136000E-004;
2.424500000000000E+009;1.637270301580429E-001;-9.279523789882660E-002;3.681754926219583E-003;6.554583669640124E-004;
2.424666666666667E+009;1.639872789382935E-001;-9.405246376991272E-002;3.681408008560538E-003;6.544045754708350E-004;
2.424833333333334E+009;1.645135432481766E-001;-9.548563510179520E-002;3.764942754060030E-003;6.693705217912793E-004;
2.425000000000000E+009;1.648101955652237E-001;-9.674672782421112E-002;3.917860332876444E-003;5.459380918182433E-004;
2.425166666666667E+009;1.651610136032105E-001;-9.763610363006592E-002;4.158387426286936E-003;6.436280673369765E-004;
2.425333333333334E+009;1.655033975839615E-001;-9.875623881816864E-002;4.204649478197098E-003;4.244180163368583E-004;
2.425500000000000E+009;1.660919189453125E-001;-9.968056529760361E-002;4.423912148922682E-003;4.599441308528185E-004;
2.425666666666667E+009;1.662674248218536E-001;-1.002779453992844E-001;4.530488979071379E-003;9.483499161433429E-005;
2.425833333333334E+009;1.667813062667847E-001;-1.011123284697533E-001;4.586728289723396E-003;-4.188486127532087E-005;
2.426000000000000E+009;1.671527475118637E-001;-1.016991361975670E-001;4.753777291625738E-003;-1.028142214636318E-004;
2.426166666666667E+009;1.675990968942642E-001;-1.021631211042404E-001;4.895821679383516E-003;-4.114820330869407E-004;
2.426333333333334E+009;1.676823049783707E-001;-1.026781424880028E-001;4.851627163589001E-003;-6.868717609904707E-004;
2.426500000000000E+009;1.680478602647781E-001;-1.029398143291473E-001;4.913245793431997E-003;-8.752586436457932E-004;
2.426666666666667E+009;1.683187186717987E-001;-1.032105162739754E-001;4.924328066408634E-003;-1.035568187944591E-003;
2.426833333333334E+009;1.685602664947510E-001;-1.034786328673363E-001;4.837614018470049E-003;-1.182790845632553E-003;
2.427000000000000E+009;1.685701161623001E-001;-1.037296801805496E-001;4.888297989964485E-003;-1.353208906948566E-003;
2.427166666666667E+009;1.685309410095215E-001;-1.037476062774658E-001;4.829683341085911E-003;-1.597534166648984E-003;
2.427333333333334E+009;1.684308201074600E-001;-1.040350943803787E-001;4.817609675228596E-003;-1.809628563933075E-003;
2.427500000000000E+009;1.682183891534805E-001;-1.041786000132561E-001;4.813986830413342E-003;-1.874858397059143E-003;
2.427666666666667E+009;1.679018884897232E-001;-1.041971594095230E-001;4.854033235460520E-003;-2.075786702334881E-003;
2.427833333333334E+009;1.675040274858475E-001;-1.041401624679565E-001;4.704902414232492E-003;-2.129934029653668E-003;
