# Version 1.00
#
freq[Hz];re:Trc1_S11;im:Trc1_S11;re:Trc2_S21;im:Trc2_S21;
2.400000000000000E+009;1.550452411174774E-001;1.063871234655380E-001;-5.179897882044315E-003;-3.472688607871532E-003;
2.400166666666667E+009;1.548840701580048E-001;1.040203943848610E-001;-5.263909697532654E-003;-3.280527424067259E-003;
2.400333333333334E+009;1.548600345849991E-001;1.017411053180695E-001;-5.645930767059326E-003;-2.945313462987542E-003;
2.400500000000000E+009;1.548795849084854E-001;9.904018789529800E-002;-5.880397278815508E-003;-2.727291546761990E-003;
2.400666666666667E+009;1.548348218202591E-001;9.653262794017792E-002;-6.020529661327601E-003;-2.315151505172253E-003;
2.400833333333334E+009;1.548122167587280E-001;9.370940178632736E-002;-6.133111193776131E-003;-1.912713050842285E-003;
2.401000000000000E+009;1.549564301967621E-001;9.096191823482513E-002;-6.352130789309740E-003;-1.513387891463935E-003;
2.401166666666667E+009;1.550698727369309E-001;8.813694119453430E-002;-6.280923262238503E-003;-1.080916146747768E-003;
2.401333333333334E+009;1.553731560707092E-001;8.550427109003067E-002;-6.024000234901905E-003;-6.282196845859289E-004;
2.401500000000000E+009;1.556660979986191E-001;8.238288760185242E-002;-5.969525780528784E-003;-3.642723313532770E-004;
2.401666666666667E+009;1.562641113996506E-001;7.962354272603989E-002;-5.813405383378267E-003;-3.826180545729585E-005;
2.401833333333334E+009;1.567011773586273E-001;7.696991413831711E-002;-5.679948255419731E-003;2.078017423627898E-004;
2.402000000000000E+009;1.576280593872070E-001;7.391333580017090E-002;-5.153699778020382E-003;4.110901209060103E-004;
2.402166666666667E+009;1.583360880613327E-001;7.143280655145645E-002;-5.104248877614737E-003;7.814742275513709E-004;
2.402333333333334E+009;1.591926366090775E-001;6.878919899463654E-002;-4.881060216575861E-003;7.324118632823229E-004;
2.402500000000000E+009;1.604041457176209E-001;6.606446206569672E-002;-4.699599929153919E-003;8.454763446934521E-004;
2.402666666666667E+009;1.615312993526459E-001;6.397335976362228E-002;-4.614945035427809E-003;1.101401518099010E-003;
2.402833333333334E+009;1.629980802536011E-001;6.131682544946671E-002;-4.347752314060926E-003;1.120463362894952E-003;
2.403000000000000E+009;1.643070578575134E-001;5.900173634290695E-002;-4.205178935080767E-003;1.004985184408724E-003;
2.403166666666667E+009;1.659176796674728E-001;5.678078904747963E-002;-4.014468751847744E-003;1.029842300340533E-003;
2.403333333333334E+009;1.674560308456421E-001;5.456816032528877E-002;-4.072859417647123E-003;9.950741659849882E-004;
2.403500000000000E+009;1.691319346427918E-001;5.260986834764481E-002;-3.975132480263710E-003;9.141752962023020E-004;
2.403666666666667E+009;1.708504855632782E-001;5.059679970145226E-002;-4.058012738823891E-003;1.085335155948997E-003;
2.403833333333334E+009;1.723929941654205E-001;4.879282787442207E-002;-3.926636651158333E-003;1.050367718562484E-003;
2.404000000000000E+009;1.738930344581604E-001;4.693645983934403E-002;-3.965561278164387E-003;1.120325759984553E-003;
2.404166666666667E+009;1.757971197366715E-001;4.547523334622383E-002;-3.892240114510059E-003;1.099761575460434E-003;
2.404333333333334E+009;1.774205118417740E-001;4.389672726392746E-002;-3.829910652711988E-003;1.210990012623370E-003;
2.404500000000000E+009;1.789809614419937E-001;4.258383065462112E-002;-3.955142572522163E-003;1.197190256789327E-003;
2.404666666666667E+009;1.806409657001495E-001;4.156136885285378E-002;-3.821030957624316E-003;1.500870799645782E-003;
2.404833333333334E+009;1.823627650737763E-001;4.042059555649757E-002;-3.887345315888524E-003;1.483347732573748E-003;
2.405000000000000E+009;1.837248355150223E-001;3.970554843544960E-002;-3.770357230678201E-003;1.671534264460206E-003;
2.405166666666667E+009;1.852406412363052E-001;3.916433826088905E-002;-3.672607475891709E-003;1.816586591303349E-003;
2.405333333333334E+009;1.865758299827576E-001;3.850700333714485E-002;-3.644238226115704E-003;2.004531677812338E-003;
2.405500000000000E+009;1.879412233829498E-001;3.831895813345909E-002;-3.646733472123742E-003;2.020196756348014E-003;
2.405666666666667E+009;1.890482008457184E-001;3.773477673530579E-002;-3.433489939197898E-003;1.935102278366685E-003;
2.405833333333334E+009;1.904784142971039E-001;3.747988119721413E-002;-3.251341637223959E-003;2.094816183671355E-003;
2.406000000000000E+009;1.914366781711578E-001;3.736777231097221E-002;-3.322845790535212E-003;2.300024265423417E-003;
2.406166666666667E+009;1.923784613609314E-001;3.727508336305618E-002;-2.933209994807839E-003;2.170922933146358E-003;
2.406333333333334E+009;1.934588402509689E-001;3.721601143479347E-002;-3.033459419384599E-003;2.268866170197725E-003;
2.406500000000000E+009;1.941770166158676E-001;3.737312182784081E-002;-2.878704341128469E-003;2.181901596486569E-003;
2.406666666666667E+009;1.947074532508850E-001;3.740329295396805E-002;-2.661394421011210E-003;2.159247640520334E-003;
2.406833333333334E+009;1.952904313802719E-001;3.753567859530449E-002;-2.707729581743479E-003;2.117098076269031E-003;
2.407000000000000E+009;1.954801380634308E-001;3.762252628803253E-002;-2.777554327622056E-003;2.187676727771759E-003;
2.407166666666667E+009;1.959073245525360E-001;3.745963051915169E-002;-2.573746722191572E-003;1.999892760068178E-003;
2.407333333333334E+009;1.958916485309601E-001;3.778523951768875E-002;-2.528029959648848E-003;1.957829575985670E-003;
2.407500000000000E+009;1.957811713218689E-001;3.784075379371643E-002;-2.516186097636819E-003;1.988786272704601E-003;
2.407666666666667E+009;1.959129869937897E-001;3.772383928298950E-002;-2.601947169750929E-003;1.890957355499268E-003;
2.407833333333334E+009;1.953965574502945E-001;3.773092851042748E-002;-2.686193678528070E-003;1.873804838396609E-003;
2.408000000000000E+009;1.953079253435135E-001;3.753698989748955E-002;-2.643049228936434E-003;1.730261603370309E-003;
2.408166666666667E+009;1.947234123945236E-001;3.730947151780129E-002;-2.622081898152828E-003;1.764307962730527E-003;
2.408333333333334E+009;1.942381113767624E-001;3.691923618316650E-002;-2.748223720118403E-003;1.944351592101157E-003;
2.408500000000000E+009;1.935472786426544E-001;3.661531582474709E-002;-2.747320337221026E-003;1.861949451267719E-003;
2.408666666666667E+009;1.929646581411362E-001;3.616333380341530E-002;-2.793016610667110E-003;1.751797506585717E-003;
2.408833333333334E+009;1.921325325965881E-001;3.545513376593590E-002;-3.088229103013873E-003;1.850443310104311E-003;
2.409000000000000E+009;1.912398785352707E-001;3.436554595828056E-002;-3.168133785948157E-003;1.792221562936902E-003;
2.409166666666667E+009;1.902760118246079E-001;3.368861228227615E-002;-3.115333616733551E-003;2.014598110690713E-003;
2.409333333333334E+009;1.894052922725678E-001;3.270912915468216E-002;-3.424778115004301E-003;2.148727187886834E-003;
2.409500000000000E+009;1.882675737142563E-001;3.148254752159119E-002;-3.362803254276514E-003;2.302881563082337E-003;
2.409666666666667E+009;1.873331964015961E-001;2.996281906962395E-002;-3.441644366830587E-003;2.475773449987173E-003;
2.409833333333334E+009;1.863784939050674E-001;2.864821814000607E-002;-3.479970851913095E-003;2.518241526558995E-003;
2.410000000000000E+009;1.853395253419876E-001;2.690901234745979E-002;-3.515681717544794E-003;2.928733825683594E-003;
2.410166666666667E+009;1.842106431722641E-001;2.514683641493321E-002;-3.546024905517697E-003;2.924284897744656E-003;
2.410333333333334E+009;1.833274215459824E-001;2.329728193581104E-002;-3.637480782344937E-003;3.320461371913552E-003;
2.410500000000000E+009;1.825596690177918E-001;2.146955765783787E-002;-3.483209293335676E-003;3.539534518495202E-003;
2.410666666666667E+009;1.815185397863388E-001;1.911975629627705E-002;-3.425376722589135E-003;3.822127589955926E-003;
2.410833333333334E+009;1.808615028858185E-001;1.683561131358147E-002;-3.249513218179345E-003;3.958748187869787E-003;
2.411000000000000E+009;1.801421195268631E-001;1.464647706598043E-002;-3.072984516620636E-003;4.190271720290184E-003;
2.411166666666667E+009;1.794470250606537E-001;1.264870725572109E-002;-3.108955686911941E-003;4.348781425505877E-003;
2.411333333333334E+009;1.791383326053619E-001;1.007979363203049E-002;-2.910580486059189E-003;4.538900218904018E-003;
2.411500000000000E+009;1.784533262252808E-001;7.539694197475910E-003;-2.670081797987223E-003;4.784254822880030E-003;
2.411666666666667E+009;1.785340756177902E-001;5.295199807733297E-003;-2.333950018510222E-003;4.962280392646790E-003;
2.411833333333334E+009;1.780941188335419E-001;2.827381948009133E-003;-2.074877964332700E-003;4.960716236382723E-003;
2.412000000000000E+009;1.783054620027542E-001;1.440503983758390E-004;-1.910816063173115E-003;5.053762346506119E-003;
2.412166666666667E+009;1.785071790218353E-001;-2.017703605815768E-003;-1.926466939039528E-003;5.026387982070446E-003;
2.412333333333334E+009;1.785214096307755E-001;-4.704040009528399E-003;-1.557357725687325E-003;5.096167791634798E-003;
2.412500000000000E+009;1.790615916252136E-001;-7.030734326690435E-003;-1.383771537803114E-003;5.136059597134590E-003;
2.412666666666667E+009;1.795977205038071E-001;-9.685210883617401E-003;-1.171171083115041E-003;5.199768580496311E-003;
2.412833333333334E+009;1.802768260240555E-001;-1.198484282940626E-002;-1.013522618450224E-003;5.203634500503540E-003;
2.413000000000000E+009;1.809924840927124E-001;-1.446800399571657E-002;-9.261734667234123E-004;5.233231000602245E-003;
2.413166666666667E+009;1.816983520984650E-001;-1.666198298335075E-002;-6.475464324466884E-004;5.210380069911480E-003;
2.413333333333334E+009;1.828932613134384E-001;-1.903236657381058E-002;-5.237442674115300E-004;5.201221443712711E-003;
2.413500000000000E+009;1.836793422698975E-001;-2.134391106665134E-002;-4.469540726859123E-004;5.151626188308001E-003;
2.413666666666667E+009;1.849783360958099E-001;-2.354919910430908E-002;-3.146900853607804E-004;5.201401188969612E-003;
2.413833333333334E+009;1.860728561878204E-001;-2.565984055399895E-002;-2.273498103022575E-004;5.157425999641419E-003;
2.414000000000000E+009;1.871437877416611E-001;-2.746064774692059E-002;-3.568605097825639E-005;5.280146375298500E-003;
2.414166666666667E+009;1.884746998548508E-001;-2.931577898561955E-002;5.070665429229848E-005;5.300128832459450E-003;
2.414333333333334E+009;1.895409077405930E-001;-3.150177374482155E-002;2.203562180511653E-004;5.476068705320358E-003;
2.414500000000000E+009;1.907068639993668E-001;-3.268599137663841E-002;3.570245171431452E-004;5.394386593252420E-003;
2.414666666666667E+009;1.920561045408249E-001;-3.441605344414711E-002;4.826682852581143E-004;5.545028951019049E-003;
2.414833333333334E+009;1.931579113006592E-001;-3.576033934950829E-002;7.602467085234821E-004;5.610504653304815E-003;
2.415000000000000E+009;1.941787898540497E-001;-3.712604567408562E-002;1.127366791479290E-003;5.692431237548590E-003;
2.415166666666667E+009;1.955387145280838E-001;-3.820946067571640E-002;1.378284301608801E-003;5.595427006483078E-003;
2.415333333333334E+009;1.966559588909149E-001;-3.902525082230568E-002;1.762539730407298E-003;5.658922251313925E-003;
2.415500000000000E+009;1.977532505989075E-001;-3.986315801739693E-002;1.946901087649167E-003;5.678482353687286E-003;
2.415666666666667E+009;1.986498832702637E-001;-4.059211909770966E-002;2.093091141432524E-003;5.592123605310917E-003;
2.415833333333334E+009;1.995185017585754E-001;-4.121211916208267E-002;2.370873233303428E-003;5.451512988656759E-003;
2.416000000000000E+009;2.003697901964188E-001;-4.180088639259338E-002;2.575885271653533E-003;5.336219444870949E-003;
2.416166666666667E+009;2.011109292507172E-001;-4.238719120621681E-002;2.900115679949522E-003;5.117226392030716E-003;
2.416333333333334E+009;2.016626149415970E-001;-4.266271367669106E-002;3.208748297765851E-003;5.155764520168304E-003;
2.416500000000000E+009;2.021307349205017E-001;-4.278752580285072E-002;3.434901591390371E-003;4.790253005921841E-003;
2.416666666666667E+009;2.024661153554916E-001;-4.318105056881905E-002;3.600181313231587E-003;4.598123952746391E-003;
2.416833333333334E+009;2.024844884872437E-001;-4.305162653326988E-002;3.831087844446302E-003;4.326988477259874E-003;
2.417000000000000E+009;2.027997970581055E-001;-4.328280314803124E-002;3.843883518129587E-003;4.056223668158054E-003;
2.417166666666667E+009;2.024182975292206E-001;-4.303255677223206E-002;3.935046028345823E-003;3.950333222746849E-003;
2.417333333333334E+009;2.022371292114258E-001;-4.292845726013184E-002;4.189226310700178E-003;3.663846990093589E-003;
2.417500000000000E+009;2.018475681543350E-001;-4.291816055774689E-002;4.087117500603199E-003;3.491269657388330E-003;
2.417666666666667E+009;2.014448344707489E-001;-4.270562529563904E-002;4.046209156513214E-003;3.306918777525425E-003;
2.417833333333334E+009;2.009741663932800E-001;-4.236018657684326E-002;4.128122236579657E-003;3.163860645145178E-003;
2.418000000000000E+009;2.002506256103516E-001;-4.215327277779579E-002;4.259525332599878E-003;2.865582238882780E-003;
2.418166666666667E+009;1.995303183794022E-001;-4.206118732690811E-002;4.137966781854630E-003;2.743633929640055E-003;
2.418333333333334E+009;1.985105872154236E-001;-4.196112975478172E-002;4.272024612873793E-003;2.599352737888694E-003;
2.418500000000000E+009;1.975683569908142E-001;-4.190984368324280E-002;4.338104743510485E-003;2.488476224243641E-003;
2.418666666666667E+009;1.966399550437927E-001;-4.182393848896027E-002;4.355443641543388E-003;2.329832408577204E-003;
2.418833333333334E+009;1.953927278518677E-001;-4.183485731482506E-002;4.153273068368435E-003;2.082858933135867E-003;
2.419000000000000E+009;1.939454823732376E-001;-4.215690866112709E-002;4.162483382970095E-003;1.911806291900575E-003;
2.419166666666667E+009;1.927374601364136E-001;-4.229614883661270E-002;4.237233661115170E-003;1.797174219973385E-003;
2.419333333333334E+009;1.912036240100861E-001;-4.295791685581207E-002;4.194397013634443E-003;1.685346127487719E-003;
2.419500000000000E+009;1.898612827062607E-001;-4.332481697201729E-002;4.058253951370716E-003;1.605552388355136E-003;
2.419666666666667E+009;1.881341636180878E-001;-4.399433732032776E-002;4.106652457267046E-003;1.398092601448298E-003;
2.419833333333334E+009;1.866094619035721E-001;-4.474147781729698E-002;4.155784845352173E-003;1.307955011725426E-003;
2.420000000000000E+009;1.850058138370514E-001;-4.550023004412651E-002;4.195317625999451E-003;1.133656594902277E-003;
2.420166666666667E+009;1.835165172815323E-001;-4.666880145668984E-002;4.215992987155914E-003;9.705139673314989E-004;
2.420333333333334E+009;1.816805601119995E-001;-4.773771390318871E-002;4.085381980985403E-003;9.477886487729847E-004;
2.420500000000000E+009;1.801150888204575E-001;-4.910552501678467E-002;3.988080658018589E-003;7.424307405017316E-004;
2.420666666666667E+009;1.784934848546982E-001;-5.005282163619995E-002;4.036150872707367E-003;5.750198033638299E-004;
2.420833333333334E+009;1.767245084047318E-001;-5.182517319917679E-002;3.892455017194152E-003;5.123795126564801E-004;
2.421000000000000E+009;1.753800660371780E-001;-5.324185267090797E-002;3.863623132929206E-003;3.849678905680776E-004;
2.421166666666667E+009;1.739895343780518E-001;-5.506731569766998E-002;3.626637393608689E-003;2.037596859736368E-004;
2.421333333333334E+009;1.722527295351028E-001;-5.654942244291306E-002;3.426936920732260E-003;1.893678418127820E-004;
2.421500000000000E+009;1.709678620100021E-001;-5.832245573401451E-002;3.449010895565152E-003;1.426813541911542E-004;
2.421666666666667E+009;1.697824746370316E-001;-6.024917960166931E-002;3.337792120873928E-003;-1.747614987834822E-005;
2.421833333333334E+009;1.686523854732513E-001;-6.217491626739502E-002;3.037723945453763E-003;8.693251584190875E-005;
2.422000000000000E+009;1.675462424755096E-001;-6.404298543930054E-002;2.994846086949110E-003;9.707492426969111E-005;
2.422166666666667E+009;1.667047739028931E-001;-6.626761704683304E-002;2.889504656195641E-003;1.241398422280327E-004;
2.422333333333334E+009;1.656962633132935E-001;-6.832618266344070E-002;2.802985487505794E-003;2.703364880289882E-004;
2.422500000000000E+009;1.648175865411758E-001;-7.019163668155670E-002;2.794796600937843E-003;4.587605653796345E-004;
2.422666666666667E+009;1.643234044313431E-001;-7.224857807159424E-002;2.822755137458444E-003;5.289675900712609E-004;
2.422833333333334E+009;1.637149602174759E-001;-7.433811575174332E-002;2.846925286576152E-003;5.455183563753963E-004;
2.423000000000000E+009;1.633670181035996E-001;-7.632604986429215E-002;2.881674328818917E-003;6.670911097899079E-004;
2.423166666666667E+009;1.630172580480576E-001;-7.832630723714829E-002;2.896508900448680E-003;5.538745899684727E-004;
2.423333333333334E+009;1.627854406833649E-001;-8.040076494216919E-002;3.008064813911915E-003;6.751121836714447E-004;
2.423500000000000E+009;1.626661717891693E-001;-8.222757279872894E-002;3.048384794965386E-003;6.762988050468266E-004;
2.423666666666667E+009;1.628279685974121E-001;-8.424866944551468E-002;2.984495367854834E-003;7.994460174813867E-004;
2.423833333333334E+009;1.627223193645477E-001;-8.598014712333679E-002;3.212749492377043E-003;6.641962099820375E-004;
2.424000000000000E+009;1.627610772848129E-001;-8.775186538696289E-002;3.378791501745582E-003;6.610179552808404E-004;
2.424166666666667E+009;1.630093306303024E-001;-8.936723321676254E-002;3.306320402771235E-003;6.419114070013166E-004;
2.424333333333334E+009;1.632660329341888E-001;-9.083624184131622E-002;3.488485934212804E-003;6.985639920458198E-004;
2.424500000000000E+009;1.636319309473038E-001;-9.259938448667526E-002;3.488650778308511E-003;6.327696028165519E-004;
2.424666666666667E+009;1.638565361499786E-001;-9.395263344049454E-002;3.666145727038384E-003;7.090874714776874E-004;
2.424833333333334E+009;1.644513159990311E-001;-9.528698772192001E-002;3.674993757158518E-003;5.457586958073080E-004;
2.425000000000000E+009;1.648093909025192E-001;-9.655120968818665E-002;3.914165310561657E-003;4.758101713377982E-004;
2.425166666666667E+009;1.649970263242722E-001;-9.755457192659378E-002;4.155561793595552E-003;4.269857599865645E-004;
2.425333333333334E+009;1.655726283788681E-001;-9.860888868570328E-002;4.168396815657616E-003;4.102925013285130E-004;
2.425500000000000E+009;1.660019606351852E-001;-9.949427098035812E-002;4.216355271637440E-003;4.778015136253089E-004;
2.425666666666667E+009;1.664015501737595E-001;-1.001609861850739E-001;4.426384810358286E-003;9.423223673366010E-005;
2.425833333333334E+009;1.667785644531250E-001;-1.011078581213951E-001;4.539190325886011E-003;-1.760604027367663E-005;
2.426000000000000E+009;1.671853810548782E-001;-1.015107557177544E-001;4.558967426419258E-003;-2.099553094012663E-004;
2.426166666666667E+009;1.675323545932770E-001;-1.019678786396980E-001;4.710651934146881E-003;-4.118262731935829E-004;
2.426333333333334E+009;1.677729338407517E-001;-1.024247258901596E-001;4.777743946760893E-003;-6.282188114710152E-004;
2.426500000000000E+009;1.681108772754669E-001;-1.027391403913498E-001;4.898485727608204E-003;-8.263328345492482E-004;
2.426666666666667E+009;1.683081686496735E-001;-1.030677780508995E-001;4.676537588238716E-003;-9.124964708462358E-004;
2.426833333333334E+009;1.685790121555328E-001;-1.033968329429627E-001;4.672936163842678E-003;-1.076591783203185E-003;
2.427000000000000E+009;1.686758100986481E-001;-1.035315915942192E-001;4.754264373332262E-003;-1.274693524464965E-003;
2.427166666666667E+009;1.686097234487534E-001;-1.036114022135735E-001;4.720024764537811E-003;-1.550905872136354E-003;
2.427333333333334E+009;1.685440242290497E-001;-1.038456410169601E-001;4.752376116812229E-003;-1.690555829554796E-003;
2.427500000000000E+009;1.682616919279099E-001;-1.039153262972832E-001;4.753767978399992E-003;-1.828439300879836E-003;
2.427666666666667E+009;1.679034382104874E-001;-1.039731949567795E-001;4.640959668904543E-003;-1.838373835198581E-003;
2.427833333333334E+009;1.675729751586914E-001;-1.041416749358177E-001;4.604164976626635E-003;-2.200412563979626E-003;
