# Version 1.00
#
freq[Hz];re:Trc1_S11;im:Trc1_S11;re:Trc2_S21;im:Trc2_S21;
2.400000000000000E+009;1.552105545997620E-001;1.065757796168327E-001;-5.042954348027706E-003;-3.423727350309491E-003;
2.400166666666667E+009;1.550428867340088E-001;1.041450798511505E-001;-5.220563150942326E-003;-3.439237130805850E-003;
2.400333333333334E+009;1.550915688276291E-001;1.017420589923859E-001;-5.505128297954798E-003;-2.975912531837821E-003;
2.400500000000000E+009;1.548238694667816E-001;9.906710684299469E-002;-5.631176754832268E-003;-2.692494308575988E-003;
2.400666666666667E+009;1.549219787120819E-001;9.665238112211227E-002;-5.893464665859938E-003;-2.172533189877868E-003;
2.400833333333334E+009;1.549805253744125E-001;9.373915195465088E-002;-5.893700756132603E-003;-1.927265315316618E-003;
2.401000000000000E+009;1.551156193017960E-001;9.094458073377609E-002;-5.955349653959274E-003;-1.571408938616514E-003;
2.401166666666667E+009;1.551040261983872E-001;8.808752894401550E-002;-5.922867916524410E-003;-1.266107079572976E-003;
2.401333333333334E+009;1.554002314805985E-001;8.547178655862808E-002;-5.922061391174793E-003;-8.330531418323517E-004;
2.401500000000000E+009;1.558594256639481E-001;8.240945637226105E-002;-5.731476005166769E-003;-4.910086281597614E-004;
2.401666666666667E+009;1.561485826969147E-001;7.975700497627258E-002;-5.602687597274780E-003;-9.772005432751030E-005;
2.401833333333334E+009;1.568261235952377E-001;7.690656185150147E-002;-5.562461446970701E-003;7.411218393826857E-005;
2.402000000000000E+009;1.575781702995300E-001;7.413657009601593E-002;-5.284777842462063E-003;4.477193579077721E-004;
2.402166666666667E+009;1.584768742322922E-001;7.146171480417252E-002;-5.088707432150841E-003;5.959936534054577E-004;
2.402333333333334E+009;1.592717468738556E-001;6.884521245956421E-002;-4.925705958157778E-003;5.855536437593401E-004;
2.402500000000000E+009;1.605079621076584E-001;6.622468680143356E-002;-4.665580578148365E-003;7.898191106505692E-004;
2.402666666666667E+009;1.616884469985962E-001;6.393851339817047E-002;-4.508245270699263E-003;7.964186370372772E-004;
2.402833333333334E+009;1.628802716732025E-001;6.136881560087204E-002;-4.328279756009579E-003;8.246661745943129E-004;
2.403000000000000E+009;1.642934232950211E-001;5.896529555320740E-002;-4.165575839579105E-003;8.426530403085053E-004;
2.403166666666667E+009;1.658736169338226E-001;5.687465146183968E-002;-4.043516237288714E-003;7.971419836394489E-004;
2.403333333333334E+009;1.674396842718124E-001;5.453074350953102E-002;-3.834123257547617E-003;8.573476807214320E-004;
2.403500000000000E+009;1.691124737262726E-001;5.250617861747742E-002;-3.939561545848846E-003;9.488960495218635E-004;
2.403666666666667E+009;1.709414124488831E-001;5.049110203981400E-002;-3.830351168289781E-003;8.056528749875724E-004;
2.403833333333334E+009;1.725833714008331E-001;4.856624826788902E-002;-3.993138205260038E-003;7.595192291773856E-004;
2.404000000000000E+009;1.739789396524429E-001;4.694749787449837E-002;-3.826096886768937E-003;9.023458696901798E-004;
2.404166666666667E+009;1.758130192756653E-001;4.538967087864876E-002;-3.785503795370460E-003;9.746105642989278E-004;
2.404333333333334E+009;1.774062514305115E-001;4.407111182808876E-002;-3.871509572491050E-003;1.150353928096592E-003;
2.404500000000000E+009;1.789952367544174E-001;4.247190803289414E-002;-3.820886835455895E-003;1.233100891113281E-003;
2.404666666666667E+009;1.807232797145844E-001;4.152244329452515E-002;-3.799335565418005E-003;1.267393468879163E-003;
2.404833333333334E+009;1.823657155036926E-001;4.041812568902969E-002;-3.905755002051592E-003;1.326280995272100E-003;
2.405000000000000E+009;1.836841553449631E-001;3.979852795600891E-002;-3.828929970040917E-003;1.519170007668436E-003;
2.405166666666667E+009;1.851308643817902E-001;3.908370435237885E-002;-3.702305722981691E-003;1.523203682154417E-003;
2.405333333333334E+009;1.865938454866409E-001;3.866368159651756E-002;-3.562876489013434E-003;1.725234091281891E-003;
2.405500000000000E+009;1.880041956901550E-001;3.815526515245438E-002;-3.537955926731229E-003;1.825458719395101E-003;
2.405666666666667E+009;1.891435235738754E-001;3.783398121595383E-002;-3.495996585115790E-003;1.914831460453570E-003;
2.405833333333334E+009;1.905185580253601E-001;3.744658455252647E-002;-3.267654450610280E-003;1.961138565093279E-003;
2.406000000000000E+009;1.914412677288055E-001;3.734439983963966E-002;-3.281588898971677E-003;2.049598144367337E-003;
2.406166666666667E+009;1.923040151596069E-001;3.726205602288246E-002;-3.057918045669794E-003;1.976512139663100E-003;
2.406333333333334E+009;1.932813823223114E-001;3.728799894452095E-002;-3.008636878803372E-003;1.923517324030399E-003;
2.406500000000000E+009;1.942651569843292E-001;3.734217211604118E-002;-2.814438194036484E-003;2.127823885530233E-003;
2.406666666666667E+009;1.947324872016907E-001;3.748206421732903E-002;-2.738541224971414E-003;1.923956093378365E-003;
2.406833333333334E+009;1.954197287559509E-001;3.751320764422417E-002;-2.739661140367389E-003;2.116581890732050E-003;
2.407000000000000E+009;1.955925524234772E-001;3.757978975772858E-002;-2.587573369964957E-003;1.956614432856441E-003;
2.407166666666667E+009;1.960459649562836E-001;3.758801147341728E-002;-2.693810965865850E-003;1.901796436868608E-003;
2.407333333333334E+009;1.959306299686432E-001;3.773747012019157E-002;-2.662660554051399E-003;1.771728857420385E-003;
2.407500000000000E+009;1.959427893161774E-001;3.778451308608055E-002;-2.683786209672689E-003;1.760722254402936E-003;
2.407666666666667E+009;1.959021240472794E-001;3.779978677630425E-002;-2.757559763267636E-003;1.881806645542383E-003;
2.407833333333334E+009;1.954146772623062E-001;3.769723698496819E-002;-2.659786492586136E-003;1.827865839004517E-003;
2.408000000000000E+009;1.953021436929703E-001;3.753539547324181E-002;-2.649640198796988E-003;1.758218044415116E-003;
2.408166666666667E+009;1.946890056133270E-001;3.735726326704025E-002;-2.783858217298985E-003;1.835296628996730E-003;
2.408333333333334E+009;1.942217797040939E-001;3.691485896706581E-002;-2.895770594477654E-003;1.843822421506047E-003;
2.408500000000000E+009;1.935926526784897E-001;3.647248819470406E-002;-2.930584596469998E-003;1.703862799331546E-003;
2.408666666666667E+009;1.929719895124435E-001;3.615580126643181E-002;-2.906900597736239E-003;1.746725640259683E-003;
2.408833333333334E+009;1.922419965267181E-001;3.534160554409027E-002;-3.104093018919230E-003;1.793955801986158E-003;
2.409000000000000E+009;1.911920011043549E-001;3.440652415156364E-002;-3.216208657249808E-003;1.791804214008153E-003;
2.409166666666667E+009;1.903295964002609E-001;3.341862186789513E-002;-3.245455678552389E-003;1.782861188985407E-003;
2.409333333333334E+009;1.894482821226120E-001;3.258700296282768E-002;-3.423754125833511E-003;2.060667844489217E-003;
2.409500000000000E+009;1.883404254913330E-001;3.129147365689278E-002;-3.522039158269763E-003;2.177525777369738E-003;
2.409666666666667E+009;1.874727606773377E-001;2.989491261541843E-002;-3.469361225143075E-003;2.282650675624609E-003;
2.409833333333334E+009;1.863131523132324E-001;2.843280322849751E-002;-3.655393142253161E-003;2.642251085489988E-003;
2.410000000000000E+009;1.854231655597687E-001;2.688442915678024E-002;-3.624589648097754E-003;2.791045000776649E-003;
2.410166666666667E+009;1.843281686306000E-001;2.502936497330666E-002;-3.724079811945558E-003;3.068944206461310E-003;
2.410333333333334E+009;1.833528429269791E-001;2.330250293016434E-002;-3.655168460682035E-003;3.181100357323885E-003;
2.410500000000000E+009;1.823359727859497E-001;2.138477750122547E-002;-3.551471512764692E-003;3.438234096392989E-003;
2.410666666666667E+009;1.814567148685455E-001;1.909628324210644E-002;-3.637566929683089E-003;3.677997738122940E-003;
2.410833333333334E+009;1.809365749359131E-001;1.689344272017479E-002;-3.411835292354226E-003;3.806302091106772E-003;
2.411000000000000E+009;1.800455152988434E-001;1.485880184918642E-002;-3.308808896690607E-003;4.099369980394840E-003;
2.411166666666667E+009;1.795313060283661E-001;1.243906468153000E-002;-3.151060082018375E-003;4.232090432196856E-003;
2.411333333333334E+009;1.789035201072693E-001;9.920299053192139E-003;-2.957426942884922E-003;4.567193333059549E-003;
2.411500000000000E+009;1.784744709730148E-001;7.471458520740271E-003;-2.806759672239423E-003;4.734761547297239E-003;
2.411666666666667E+009;1.782953441143036E-001;5.214719567447901E-003;-2.517117420211434E-003;4.839492030441761E-003;
2.411833333333334E+009;1.780158728361130E-001;2.746016252785921E-003;-2.349192276597023E-003;4.833291284739971E-003;
2.412000000000000E+009;1.780412942171097E-001;1.442212669644505E-004;-2.205820521339774E-003;5.135641898959875E-003;
2.412166666666667E+009;1.782912015914917E-001;-2.239973749965429E-003;-1.960075926035643E-003;5.174630321562290E-003;
2.412333333333334E+009;1.785798668861389E-001;-4.736332688480616E-003;-1.735956757329404E-003;5.151236895471811E-003;
2.412500000000000E+009;1.789551377296448E-001;-7.073520682752132E-003;-1.598702976480126E-003;5.183472298085690E-003;
2.412666666666667E+009;1.793571859598160E-001;-9.773196652531624E-003;-1.228622393682599E-003;5.289438180625439E-003;
2.412833333333334E+009;1.802785247564316E-001;-1.216036360710859E-002;-1.185489003546536E-003;5.150397308170795E-003;
2.413000000000000E+009;1.809089928865433E-001;-1.452291104942560E-002;-9.606136009097099E-004;5.161726847290993E-003;
2.413166666666667E+009;1.816258281469345E-001;-1.671869307756424E-002;-7.719912682659924E-004;5.255019292235375E-003;
2.413333333333334E+009;1.828285157680512E-001;-1.900980994105339E-002;-6.455542170442641E-004;5.138539243489504E-003;
2.413500000000000E+009;1.836636364459992E-001;-2.125648967921734E-002;-5.484526045620441E-004;5.183838773518801E-003;
2.413666666666667E+009;1.848872452974320E-001;-2.346476539969444E-002;-4.402137128636241E-004;5.285869352519512E-003;
2.413833333333334E+009;1.859093010425568E-001;-2.562454901635647E-002;-2.935091324616224E-004;5.265483167022467E-003;
2.414000000000000E+009;1.869837790727615E-001;-2.748195081949234E-002;-2.388666907791048E-004;5.300266668200493E-003;
2.414166666666667E+009;1.883180886507034E-001;-2.920136228203774E-002;-4.317790808272548E-005;5.386122968047857E-003;
2.414333333333334E+009;1.893703937530518E-001;-3.130035474896431E-002;1.571633183630183E-004;5.504534114152193E-003;
2.414500000000000E+009;1.907590925693512E-001;-3.285175934433937E-002;1.997307263081893E-004;5.559923127293587E-003;
2.414666666666667E+009;1.917399317026138E-001;-3.429820388555527E-002;4.193166678305715E-004;5.484153516590595E-003;
2.414833333333334E+009;1.930959224700928E-001;-3.564773127436638E-002;6.344704888761044E-004;5.624739453196526E-003;
2.415000000000000E+009;1.941209733486176E-001;-3.704778477549553E-002;9.288630681112409E-004;5.744785536080599E-003;
2.415166666666667E+009;1.954055279493332E-001;-3.806880861520767E-002;1.207662513479590E-003;5.794921424239874E-003;
2.415333333333334E+009;1.965496242046356E-001;-3.914892300963402E-002;1.564570004120469E-003;5.909649655222893E-003;
2.415500000000000E+009;1.976352781057358E-001;-3.976524621248245E-002;1.819989411160350E-003;5.679260939359665E-003;
2.415666666666667E+009;1.986425966024399E-001;-4.054022207856178E-002;1.996101113036275E-003;5.715046077966690E-003;
2.415833333333334E+009;1.995337754487991E-001;-4.117413610219955E-002;2.229566685855389E-003;5.571745336055756E-003;
2.416000000000000E+009;2.003159523010254E-001;-4.159862175583839E-002;2.627513138577342E-003;5.501986481249332E-003;
2.416166666666667E+009;2.009268850088120E-001;-4.237533733248711E-002;2.810444217175245E-003;5.292604211717844E-003;
2.416333333333334E+009;2.017188221216202E-001;-4.254601895809174E-002;3.135509090498090E-003;5.244228988885880E-003;
2.416500000000000E+009;2.021319568157196E-001;-4.273737967014313E-002;3.297473769634962E-003;4.843172617256641E-003;
2.416666666666667E+009;2.024392932653427E-001;-4.311808198690414E-002;3.391000907868147E-003;4.605902824550867E-003;
2.416833333333334E+009;2.024100273847580E-001;-4.298067465424538E-002;3.626361489295960E-003;4.334920551627874E-003;
2.417000000000000E+009;2.026843130588532E-001;-4.317243024706841E-002;3.690104233101010E-003;4.310681018978357E-003;
2.417166666666667E+009;2.023742198944092E-001;-4.301055148243904E-002;3.769908333197236E-003;4.164809826761484E-003;
2.417333333333334E+009;2.021626383066177E-001;-4.281146451830864E-002;3.990274854004383E-003;3.888953477144241E-003;
2.417500000000000E+009;2.018738985061646E-001;-4.272110387682915E-002;3.944439347833395E-003;3.634729655459523E-003;
2.417666666666667E+009;2.013966292142868E-001;-4.263739287853241E-002;4.123904742300510E-003;3.425097558647394E-003;
2.417833333333334E+009;2.010153979063034E-001;-4.229529574513435E-002;4.166844300925732E-003;3.222010098397732E-003;
2.418000000000000E+009;2.003360837697983E-001;-4.208832979202271E-002;4.270251840353012E-003;3.166464157402515E-003;
2.418166666666667E+009;1.995686590671539E-001;-4.196262732148171E-002;4.238244146108627E-003;2.819727873429656E-003;
2.418333333333334E+009;1.986023038625717E-001;-4.177541658282280E-002;4.319479223340750E-003;2.702200785279274E-003;
2.418500000000000E+009;1.976084262132645E-001;-4.187745973467827E-002;4.123205784708262E-003;2.665038919076324E-003;
2.418666666666667E+009;1.965650618076325E-001;-4.164920002222061E-002;4.140065982937813E-003;2.457068534567952E-003;
2.418833333333334E+009;1.954798549413681E-001;-4.187774285674095E-002;4.226301331073046E-003;2.181123010814190E-003;
2.419000000000000E+009;1.939866691827774E-001;-4.204869642853737E-002;4.251052159816027E-003;2.029053634032607E-003;
2.419166666666667E+009;1.927725672721863E-001;-4.232100397348404E-002;4.237347748130560E-003;1.930875121615827E-003;
2.419333333333334E+009;1.913796216249466E-001;-4.276058822870255E-002;4.191593267023563E-003;1.855541253462434E-003;
2.419500000000000E+009;1.898373365402222E-001;-4.318344965577126E-002;4.245482385158539E-003;1.630332437343895E-003;
2.419666666666667E+009;1.882362812757492E-001;-4.395601898431778E-002;4.187332466244698E-003;1.544128172099590E-003;
2.419833333333334E+009;1.867163032293320E-001;-4.463016241788864E-002;4.281780682504177E-003;1.474770484492183E-003;
2.420000000000000E+009;1.852423101663590E-001;-4.557615518569946E-002;4.077296238392592E-003;1.406646915711463E-003;
2.420166666666667E+009;1.835265457630158E-001;-4.646878689527512E-002;4.201022908091545E-003;1.086239353753626E-003;
2.420333333333334E+009;1.818355470895767E-001;-4.754541814327240E-002;4.125826060771942E-003;1.037417794577777E-003;
2.420500000000000E+009;1.801813691854477E-001;-4.891147091984749E-002;4.254253581166267E-003;8.415433112531900E-004;
2.420666666666667E+009;1.786724925041199E-001;-5.001156777143478E-002;4.025292582809925E-003;9.081137250177562E-004;
2.420833333333334E+009;1.769130676984787E-001;-5.171088129281998E-002;4.043705295771360E-003;5.862315883859992E-004;
2.421000000000000E+009;1.754439622163773E-001;-5.334942415356636E-002;3.762123407796025E-003;4.979799268767238E-004;
2.421166666666667E+009;1.740746945142746E-001;-5.489311367273331E-002;3.628801321610808E-003;2.303189248777926E-004;
2.421333333333334E+009;1.724050790071487E-001;-5.650432407855988E-002;3.612337633967400E-003;1.545111153973267E-004;
2.421500000000000E+009;1.712840944528580E-001;-5.839189514517784E-002;3.423208137974143E-003;8.826879638945684E-005;
2.421666666666667E+009;1.699623912572861E-001;-6.018449738621712E-002;3.252020105719566E-003;1.529653818579391E-004;
2.421833333333334E+009;1.689062565565109E-001;-6.212135404348373E-002;3.159899497404695E-003;1.254415983567014E-004;
2.422000000000000E+009;1.677542924880981E-001;-6.400971114635468E-002;2.980566583573818E-003;2.526149619370699E-004;
2.422166666666667E+009;1.668137907981873E-001;-6.616526842117310E-002;2.859025029465556E-003;2.881905238609761E-004;
2.422333333333334E+009;1.657987982034683E-001;-6.826039403676987E-002;2.894836245104671E-003;3.215454053133726E-004;
2.422500000000000E+009;1.650239825248718E-001;-7.022845745086670E-002;2.889317693188787E-003;3.821525897365063E-004;
2.422666666666667E+009;1.644167751073837E-001;-7.226852327585220E-002;2.894403180107474E-003;5.198555300012231E-004;
2.422833333333334E+009;1.639618724584580E-001;-7.430908828973770E-002;2.893881639465690E-003;6.172102876007557E-004;
2.423000000000000E+009;1.633820384740830E-001;-7.637438923120499E-002;2.859142143279314E-003;7.633803179487586E-004;
2.423166666666667E+009;1.631376296281815E-001;-7.857515662908554E-002;2.885167952626944E-003;6.245121476240456E-004;
2.423333333333334E+009;1.629438102245331E-001;-8.048240095376968E-002;3.046033205464482E-003;7.781976601108909E-004;
2.423500000000000E+009;1.629569679498673E-001;-8.210203796625137E-002;3.075432265177369E-003;8.745563682168722E-004;
2.423666666666667E+009;1.628071516752243E-001;-8.404859155416489E-002;3.136523533612490E-003;7.510763243772090E-004;
2.423833333333334E+009;1.628441512584686E-001;-8.603749424219132E-002;3.324910067021847E-003;8.339498308487237E-004;
2.424000000000000E+009;1.629466861486435E-001;-8.776156604290009E-002;3.358395770192146E-003;6.162312347441912E-004;
2.424166666666667E+009;1.630784720182419E-001;-8.944086730480194E-002;3.381119109690189E-003;6.567840464413166E-004;
2.424333333333334E+009;1.633810997009277E-001;-9.098529070615768E-002;3.574701491743326E-003;8.621668675914407E-004;
2.424500000000000E+009;1.636090427637100E-001;-9.266532957553864E-002;3.582782112061977E-003;8.094605873338878E-004;
2.424666666666667E+009;1.639462709426880E-001;-9.402520209550858E-002;3.683120012283325E-003;6.476085400208831E-004;
2.424833333333334E+009;1.645170003175736E-001;-9.536463022232056E-002;3.849013242870569E-003;6.485401536338031E-004;
2.425000000000000E+009;1.648451089859009E-001;-9.651570767164230E-002;4.005193710327148E-003;5.438716616481543E-004;
2.425166666666667E+009;1.652054786682129E-001;-9.765128791332245E-002;4.080674611032009E-003;4.344049666542560E-004;
2.425333333333334E+009;1.655812710523605E-001;-9.855889528989792E-002;4.306760616600514E-003;4.618509847205132E-004;
2.425500000000000E+009;1.660718619823456E-001;-9.970176219940186E-002;4.360776394605637E-003;3.042489115614444E-004;
2.425666666666667E+009;1.665655970573425E-001;-1.002096384763718E-001;4.595999140292406E-003;1.446640235371888E-004;
2.425833333333334E+009;1.668956279754639E-001;-1.010772883892059E-001;4.764066077768803E-003;9.435352694708854E-006;
2.426000000000000E+009;1.673069447278976E-001;-1.015742942690849E-001;4.697180818766356E-003;-2.100607671309263E-004;
2.426166666666667E+009;1.675805449485779E-001;-1.020730212330818E-001;4.796024411916733E-003;-4.386679211165756E-004;
2.426333333333334E+009;1.677678525447846E-001;-1.025228723883629E-001;4.842294845730066E-003;-5.163412424735725E-004;
2.426500000000000E+009;1.682240217924118E-001;-1.027962863445282E-001;4.893064033240080E-003;-7.152770995162427E-004;
2.426666666666667E+009;1.684121787548065E-001;-1.031985059380531E-001;4.855253268033266E-003;-9.632445289753377E-004;
2.426833333333334E+009;1.687222272157669E-001;-1.034405082464218E-001;4.839072003960609E-003;-1.101330853998661E-003;
2.427000000000000E+009;1.686603575944901E-001;-1.036118790507317E-001;4.854044411331415E-003;-1.241801539435983E-003;
2.427166666666667E+009;1.686835736036301E-001;-1.036565005779266E-001;4.755961243063211E-003;-1.471690367907286E-003;
2.427333333333334E+009;1.685246229171753E-001;-1.038530692458153E-001;4.711313173174858E-003;-1.673907507210970E-003;
2.427500000000000E+009;1.683329194784164E-001;-1.040812134742737E-001;4.677677527070046E-003;-1.848389394581318E-003;
2.427666666666667E+009;1.680421531200409E-001;-1.040614992380142E-001;4.753571003675461E-003;-1.864182297140360E-003;
2.427833333333334E+009;1.676010638475418E-001;-1.042869389057159E-001;4.755383357405663E-003;-2.193636726588011E-003;
