# Version 1.00
#
freq[Hz];re:Trc1_S11;im:Trc1_S11;re:Trc2_S21;im:Trc2_S21;
2.400000000000000E+009;1.552852988243103E-001;1.064290702342987E-001;-5.175199359655380E-003;-3.540241159498692E-003;
2.400166666666667E+009;1.549293547868729E-001;1.040090695023537E-001;-5.344029050320387E-003;-3.196114907041192E-003;
2.400333333333334E+009;1.549540460109711E-001;1.017849892377853E-001;-5.621609278023243E-003;-3.022428369149566E-003;
2.400500000000000E+009;1.549496650695801E-001;9.910923987627029E-002;-5.816502030938864E-003;-2.699661767110229E-003;
2.400666666666667E+009;1.549090296030045E-001;9.657813608646393E-002;-6.024748552590609E-003;-2.377186436206102E-003;
2.400833333333334E+009;1.549188941717148E-001;9.369046986103058E-002;-6.058483850210905E-003;-1.934234169311822E-003;
2.401000000000000E+009;1.550215780735016E-001;9.096637368202210E-002;-6.121058482676745E-003;-1.582821714691818E-003;
2.401166666666667E+009;1.550005227327347E-001;8.813032507896423E-002;-6.248591467738152E-003;-1.370539423078299E-003;
2.401333333333334E+009;1.555567234754562E-001;8.535415679216385E-002;-6.038540974259377E-003;-8.211121894419193E-004;
2.401500000000000E+009;1.560666561126709E-001;8.236844837665558E-002;-5.902038887143135E-003;-3.612702130340040E-004;
2.401666666666667E+009;1.563817113637924E-001;7.946892082691193E-002;-5.790175870060921E-003;-1.489253336330876E-004;
2.401833333333334E+009;1.568544059991837E-001;7.680505514144898E-002;-5.658099893480539E-003;1.811684633139521E-004;
2.402000000000000E+009;1.576580852270126E-001;7.407360523939133E-002;-5.372814368456602E-003;2.793487219605595E-004;
2.402166666666667E+009;1.584378927946091E-001;7.156004756689072E-002;-5.063585471361876E-003;6.617573089897633E-004;
2.402333333333334E+009;1.595327705144882E-001;6.866227090358734E-002;-4.975442308932543E-003;7.753691752441227E-004;
2.402500000000000E+009;1.604742258787155E-001;6.615538150072098E-002;-4.774491768330336E-003;7.157376385293901E-004;
2.402666666666667E+009;1.618265658617020E-001;6.389883905649185E-002;-4.540125373750925E-003;8.576344116590917E-004;
2.402833333333334E+009;1.631163954734802E-001;6.143091246485710E-002;-4.526005126535893E-003;8.828676654957235E-004;
2.403000000000000E+009;1.644670367240906E-001;5.883150175213814E-002;-4.309304989874363E-003;9.127688244916499E-004;
2.403166666666667E+009;1.661407798528671E-001;5.668124184012413E-002;-4.283921327441931E-003;8.500079857185483E-004;
2.403333333333334E+009;1.674879044294357E-001;5.453056469559670E-002;-4.128111992031336E-003;1.019888091832399E-003;
2.403500000000000E+009;1.691190451383591E-001;5.248302221298218E-002;-4.079144448041916E-003;8.193923276849091E-004;
2.403666666666667E+009;1.709896922111511E-001;5.038586258888245E-002;-3.984886687248945E-003;1.038628164678812E-003;
2.403833333333334E+009;1.726153790950775E-001;4.871979355812073E-002;-3.993285354226828E-003;1.052506733685732E-003;
2.404000000000000E+009;1.741202622652054E-001;4.687592759728432E-002;-3.978265915066004E-003;1.110762823373079E-003;
2.404166666666667E+009;1.760250329971314E-001;4.545079544186592E-002;-4.090265836566687E-003;1.079926965758205E-003;
2.404333333333334E+009;1.775654405355454E-001;4.372115805745125E-002;-3.980675246566534E-003;1.212186878547072E-003;
2.404500000000000E+009;1.791252493858337E-001;4.239485785365105E-002;-4.018376115709543E-003;1.352758146822453E-003;
2.404666666666667E+009;1.810225397348404E-001;4.138077795505524E-002;-3.990761470049620E-003;1.274066627956927E-003;
2.404833333333334E+009;1.824600845575333E-001;4.024352133274078E-002;-3.905757796019316E-003;1.606422010809183E-003;
2.405000000000000E+009;1.838383972644806E-001;3.957594558596611E-002;-3.881270997226238E-003;1.672046026214957E-003;
2.405166666666667E+009;1.853898763656616E-001;3.893725574016571E-002;-3.666914999485016E-003;1.763739739544690E-003;
2.405333333333334E+009;1.868754029273987E-001;3.837183862924576E-002;-3.645210294052959E-003;1.874610548838973E-003;
2.405500000000000E+009;1.880938261747360E-001;3.795797377824783E-002;-3.721426706761122E-003;1.980387140065432E-003;
2.405666666666667E+009;1.893593370914459E-001;3.766940534114838E-002;-3.471146104857326E-003;2.061965642496944E-003;
2.405833333333334E+009;1.905522197484970E-001;3.741214051842690E-002;-3.372098319232464E-003;1.901688752695918E-003;
2.406000000000000E+009;1.916865259408951E-001;3.717988356947899E-002;-3.285466926172376E-003;2.162288175895810E-003;
2.406166666666667E+009;1.925477385520935E-001;3.711425885558128E-002;-3.129509044811130E-003;2.087916014716029E-003;
2.406333333333334E+009;1.934924125671387E-001;3.711378946900368E-002;-2.950478810817003E-003;2.125480677932501E-003;
2.406500000000000E+009;1.941337138414383E-001;3.724262863397598E-002;-2.821764908730984E-003;2.159682102501392E-003;
2.406666666666667E+009;1.949450075626373E-001;3.733343631029129E-002;-2.764181699603796E-003;2.180126029998064E-003;
2.406833333333334E+009;1.953927725553513E-001;3.727331012487412E-002;-2.788969548419118E-003;2.056306228041649E-003;
2.407000000000000E+009;1.956876963376999E-001;3.747302666306496E-002;-2.695917617529631E-003;2.124376129359007E-003;
2.407166666666667E+009;1.960226446390152E-001;3.744808956980705E-002;-2.529238350689411E-003;2.087477361783385E-003;
2.407333333333334E+009;1.958957761526108E-001;3.765811398625374E-002;-2.664672676473856E-003;2.040596911683679E-003;
2.407500000000000E+009;1.958902776241303E-001;3.778189420700073E-002;-2.422364195808768E-003;1.974325859919190E-003;
2.407666666666667E+009;1.959514766931534E-001;3.764865919947624E-002;-2.530039288103581E-003;1.790897338651121E-003;
2.407833333333334E+009;1.954623609781265E-001;3.763776645064354E-002;-2.564290305599570E-003;1.851516659371555E-003;
2.408000000000000E+009;1.952336579561234E-001;3.749493509531021E-002;-2.638121834024787E-003;1.795023446902633E-003;
2.408166666666667E+009;1.946854442358017E-001;3.722927346825600E-002;-2.662138780578971E-003;1.808900269679725E-003;
2.408333333333334E+009;1.942835748195648E-001;3.663288429379463E-002;-2.743276767432690E-003;1.635360415093601E-003;
2.408500000000000E+009;1.936789304018021E-001;3.644596785306931E-002;-2.831792924553156E-003;1.735392841510475E-003;
2.408666666666667E+009;1.929877102375031E-001;3.598009422421455E-002;-2.980013377964497E-003;1.817703014239669E-003;
2.408833333333334E+009;1.923090368509293E-001;3.522860258817673E-002;-2.971046371385455E-003;1.831034896895289E-003;
2.409000000000000E+009;1.914060413837433E-001;3.438961133360863E-002;-2.964706392958760E-003;1.946615986526012E-003;
2.409166666666667E+009;1.902903914451599E-001;3.337750956416130E-002;-3.084684722125530E-003;2.116079675033689E-003;
2.409333333333334E+009;1.894315779209137E-001;3.245521709322929E-002;-3.253545379266143E-003;2.213293686509132E-003;
2.409500000000000E+009;1.882542818784714E-001;3.118249587714672E-002;-3.440505126491189E-003;2.184522571042180E-003;
2.409666666666667E+009;1.872701942920685E-001;2.987204492092133E-002;-3.308095037937164E-003;2.429931890219450E-003;
2.409833333333334E+009;1.863095164299011E-001;2.819914370775223E-002;-3.463422646746039E-003;2.659548539668322E-003;
2.410000000000000E+009;1.852870285511017E-001;2.654916048049927E-002;-3.505705855786800E-003;2.832567319273949E-003;
2.410166666666667E+009;1.843371838331223E-001;2.483526244759560E-002;-3.656198270618916E-003;3.054699162021279E-003;
2.410333333333334E+009;1.833025813102722E-001;2.301818318665028E-002;-3.447247669100761E-003;3.267752937972546E-003;
2.410500000000000E+009;1.822317540645599E-001;2.117444202303886E-002;-3.443491412326694E-003;3.458117134869099E-003;
2.410666666666667E+009;1.814997792243958E-001;1.877617463469505E-002;-3.436401719227433E-003;3.817884018644691E-003;
2.410833333333334E+009;1.807618737220764E-001;1.679711975157261E-002;-3.466292750090361E-003;4.023707937449217E-003;
2.411000000000000E+009;1.800495982170105E-001;1.437775790691376E-002;-3.211624221876264E-003;4.174071364104748E-003;
2.411166666666667E+009;1.793785542249680E-001;1.237864792346954E-002;-3.119632601737976E-003;4.316272214055061E-003;
2.411333333333334E+009;1.788527518510819E-001;9.836763143539429E-003;-2.935964846983552E-003;4.584175068885088E-003;
2.411500000000000E+009;1.782755702733994E-001;7.185635156929493E-003;-2.653178526088595E-003;4.747592844069004E-003;
2.411666666666667E+009;1.782771348953247E-001;4.986188374459744E-003;-2.375940559431911E-003;4.866873379796743E-003;
2.411833333333334E+009;1.779985427856445E-001;2.557484433054924E-003;-2.220539143308997E-003;4.990205634385347E-003;
2.412000000000000E+009;1.780758798122406E-001;-1.782491599442437E-004;-2.094831550493836E-003;5.050616338849068E-003;
2.412166666666667E+009;1.782451868057251E-001;-2.503243740648031E-003;-1.914045657031238E-003;5.108427256345749E-003;
2.412333333333334E+009;1.783994287252426E-001;-4.839053377509117E-003;-1.735145458951592E-003;5.147821269929409E-003;
2.412500000000000E+009;1.789643615484238E-001;-7.371497806161642E-003;-1.353581785224378E-003;5.284514278173447E-003;
2.412666666666667E+009;1.792012304067612E-001;-9.859346784651279E-003;-1.289183157496154E-003;5.229427944868803E-003;
2.412833333333334E+009;1.800805330276489E-001;-1.237841416150332E-002;-1.115385675802827E-003;5.266305059194565E-003;
2.413000000000000E+009;1.808920502662659E-001;-1.468965969979763E-002;-1.052374951541424E-003;5.207287147641182E-003;
2.413166666666667E+009;1.816056072711945E-001;-1.694247312843800E-002;-7.416986627504230E-004;5.357744637876749E-003;
2.413333333333334E+009;1.828330308198929E-001;-1.938517019152641E-002;-6.370368646457791E-004;5.252042785286903E-003;
2.413500000000000E+009;1.835511326789856E-001;-2.160282433032990E-002;-4.324949404690415E-004;5.320475436747074E-003;
2.413666666666667E+009;1.849479079246521E-001;-2.390599250793457E-002;-3.626970574259758E-004;5.378747824579477E-003;
2.413833333333334E+009;1.858584731817246E-001;-2.600193209946156E-002;-1.562554098200053E-004;5.405096802860498E-003;
2.414000000000000E+009;1.869226545095444E-001;-2.782217040657997E-002;-9.686007615528069E-006;5.226846784353256E-003;
2.414166666666667E+009;1.883285939693451E-001;-2.956973947584629E-002;-3.382151408004575E-005;5.394873209297657E-003;
2.414333333333334E+009;1.892490088939667E-001;-3.155493363738060E-002;3.108464443357661E-005;5.419277586042881E-003;
2.414500000000000E+009;1.905036866664887E-001;-3.303392231464386E-002;3.930676612071693E-004;5.484815686941147E-003;
2.414666666666667E+009;1.917888820171356E-001;-3.458403423428536E-002;5.867207655683160E-004;5.559934303164482E-003;
2.414833333333334E+009;1.929900348186493E-001;-3.603400662541390E-002;7.729415665380657E-004;5.478387698531151E-003;
2.415000000000000E+009;1.941201984882355E-001;-3.730671107769013E-002;1.082766917534173E-003;5.827605258673430E-003;
2.415166666666667E+009;1.951792389154434E-001;-3.826053440570831E-002;1.312337932176888E-003;5.716298241168261E-003;
2.415333333333334E+009;1.964846104383469E-001;-3.922602161765099E-002;1.506390050053597E-003;5.731688812375069E-003;
2.415500000000000E+009;1.975056976079941E-001;-3.998801112174988E-002;1.733373966999352E-003;5.624352954328060E-003;
2.415666666666667E+009;1.985579431056976E-001;-4.082856699824333E-002;2.122724195942283E-003;5.568232852965593E-003;
2.415833333333334E+009;1.992895454168320E-001;-4.143693298101425E-002;2.367157954722643E-003;5.504635162651539E-003;
2.416000000000000E+009;2.001350522041321E-001;-4.200097545981407E-002;2.665331354364753E-003;5.364249926060438E-003;
2.416166666666667E+009;2.009060531854630E-001;-4.252995178103447E-002;2.816601423546672E-003;5.224534310400486E-003;
2.416333333333334E+009;2.014407366514206E-001;-4.275375232100487E-002;3.130404045805335E-003;5.107020027935505E-003;
2.416500000000000E+009;2.019613385200501E-001;-4.298436641693115E-002;3.270914079621434E-003;4.879059270024300E-003;
2.416666666666667E+009;2.021593749523163E-001;-4.329382255673409E-002;3.463197732344270E-003;4.657826386392117E-003;
2.416833333333334E+009;2.022789269685745E-001;-4.336636140942574E-002;3.506357315927744E-003;4.183819517493248E-003;
2.417000000000000E+009;2.025195211172104E-001;-4.339290037751198E-002;3.844247199594975E-003;4.214880988001823E-003;
2.417166666666667E+009;2.021993547677994E-001;-4.324638843536377E-002;3.840618999674916E-003;4.064957611262798E-003;
2.417333333333334E+009;2.019777148962021E-001;-4.303672537207604E-002;3.971111029386520E-003;3.827269654721022E-003;
2.417500000000000E+009;2.015493363142014E-001;-4.303915426135063E-002;4.103838000446558E-003;3.665633499622345E-003;
2.417666666666667E+009;2.010697424411774E-001;-4.286617413163185E-002;4.198397509753704E-003;3.470703493803740E-003;
2.417833333333334E+009;2.006237357854843E-001;-4.258378967642784E-002;4.161501768976450E-003;3.115091240033507E-003;
2.418000000000000E+009;2.000142484903336E-001;-4.220714792609215E-002;4.081904422491789E-003;2.882238011807203E-003;
2.418166666666667E+009;1.991368979215622E-001;-4.220430552959442E-002;4.269783850759268E-003;2.763655036687851E-003;
2.418333333333334E+009;1.983351260423660E-001;-4.195999354124069E-002;4.243263509124517E-003;2.657166682183743E-003;
2.418500000000000E+009;1.972740143537521E-001;-4.208607599139214E-002;4.340514540672302E-003;2.590601099655032E-003;
2.418666666666667E+009;1.963646113872528E-001;-4.194486141204834E-002;4.252963699400425E-003;2.254711929708719E-003;
2.418833333333334E+009;1.949762254953384E-001;-4.203868284821510E-002;4.238665103912354E-003;2.282121684402227E-003;
2.419000000000000E+009;1.937750726938248E-001;-4.217958077788353E-002;4.235547501593828E-003;2.029111143201590E-003;
2.419166666666667E+009;1.923613697290421E-001;-4.251147061586380E-002;4.163495264947414E-003;1.888414844870567E-003;
2.419333333333334E+009;1.910367906093597E-001;-4.302714392542839E-002;4.298605490475893E-003;1.773085910826922E-003;
2.419500000000000E+009;1.895353943109512E-001;-4.335378482937813E-002;4.259202163666487E-003;1.635444350540638E-003;
2.419666666666667E+009;1.880179792642593E-001;-4.413997754454613E-002;4.215177614241839E-003;1.487298053689301E-003;
2.419833333333334E+009;1.863103359937668E-001;-4.479148611426354E-002;4.132099449634552E-003;1.404788345098496E-003;
2.420000000000000E+009;1.847858726978302E-001;-4.569395259022713E-002;4.228322766721249E-003;1.334107248112559E-003;
2.420166666666667E+009;1.830339878797531E-001;-4.662040621042252E-002;4.288362804800272E-003;1.190324081107974E-003;
2.420333333333334E+009;1.815718710422516E-001;-4.792524129152298E-002;4.310598596930504E-003;8.881731773726642E-004;
2.420500000000000E+009;1.797071248292923E-001;-4.906787350773811E-002;4.148065578192473E-003;7.828239467926323E-004;
2.420666666666667E+009;1.782547235488892E-001;-5.030867084860802E-002;4.105809610337019E-003;6.871396908536553E-004;
2.420833333333334E+009;1.765395998954773E-001;-5.178320035338402E-002;3.879671683534980E-003;5.768151022493839E-004;
2.421000000000000E+009;1.751489937305450E-001;-5.330612882971764E-002;3.916251007467508E-003;4.448447434697300E-004;
2.421166666666667E+009;1.737633943557739E-001;-5.501551553606987E-002;3.782337298616767E-003;3.587528481148183E-004;
2.421333333333334E+009;1.720543503761292E-001;-5.656286329030991E-002;3.561533521860838E-003;2.603528846520931E-004;
2.421500000000000E+009;1.708118319511414E-001;-5.849999561905861E-002;3.479953622445464E-003;1.442156208213419E-004;
2.421666666666667E+009;1.695751100778580E-001;-6.026037037372589E-002;3.251329530030489E-003;1.891453430289403E-004;
2.421833333333334E+009;1.683397591114044E-001;-6.209963932633400E-002;3.102618269622326E-003;1.115072882384993E-004;
2.422000000000000E+009;1.672007143497467E-001;-6.408337503671646E-002;3.063291776925325E-003;2.794721804093570E-004;
2.422166666666667E+009;1.664479821920395E-001;-6.627734005451202E-002;2.950064837932587E-003;2.248016098747030E-004;
2.422333333333334E+009;1.656798869371414E-001;-6.820599734783173E-002;2.852499950677156E-003;2.540338318794966E-004;
2.422500000000000E+009;1.644944548606873E-001;-7.028961926698685E-002;2.866982715204358E-003;3.710262826643884E-004;
2.422666666666667E+009;1.640458703041077E-001;-7.234089821577072E-002;2.910722512751818E-003;3.965650394093245E-004;
2.422833333333334E+009;1.635708957910538E-001;-7.444445788860321E-002;2.764961449429393E-003;5.356363253667951E-004;
2.423000000000000E+009;1.630881130695343E-001;-7.645530998706818E-002;2.954458585008979E-003;6.276168860495091E-004;
2.423166666666667E+009;1.626890748739243E-001;-7.822905480861664E-002;2.868524752557278E-003;5.163722089491785E-004;
2.423333333333334E+009;1.624494642019272E-001;-8.041041344404221E-002;2.947402419522405E-003;7.414728752337396E-004;
2.423500000000000E+009;1.622734218835831E-001;-8.225262165069580E-002;3.015194553881884E-003;9.160494082607329E-004;
2.423666666666667E+009;1.624486744403839E-001;-8.411058783531189E-002;3.116106614470482E-003;7.284935563802719E-004;
2.423833333333334E+009;1.624619960784912E-001;-8.572556823492050E-002;3.087899414822459E-003;7.554044132120907E-004;
2.424000000000000E+009;1.624920666217804E-001;-8.766298741102219E-002;3.270609304308891E-003;7.155546336434782E-004;
2.424166666666667E+009;1.627990752458572E-001;-8.921716362237930E-002;3.397460095584393E-003;7.994273910298944E-004;
2.424333333333334E+009;1.630158573389053E-001;-9.086424112319946E-002;3.465319517999888E-003;8.948617614805698E-004;
2.424500000000000E+009;1.633028686046600E-001;-9.269638359546661E-002;3.624869277700782E-003;7.945367251522839E-004;
2.424666666666667E+009;1.635718792676926E-001;-9.390120208263397E-002;3.684768220409751E-003;6.348252063617110E-004;
2.424833333333334E+009;1.641072183847427E-001;-9.511462599039078E-002;3.795075230300427E-003;6.712453905493021E-004;
2.425000000000000E+009;1.646899431943893E-001;-9.644156694412231E-002;3.952154424041510E-003;5.039552925154567E-004;
2.425166666666667E+009;1.648395061492920E-001;-9.756563603878021E-002;3.967593889683485E-003;5.749590345658362E-004;
2.425333333333334E+009;1.652447730302811E-001;-9.847341477870941E-002;4.263506270945072E-003;3.692451282404363E-004;
2.425500000000000E+009;1.656303256750107E-001;-9.943901002407074E-002;4.350367933511734E-003;4.371453542262316E-004;
2.425666666666667E+009;1.661056876182556E-001;-1.000727638602257E-001;4.424118436872959E-003;-1.735376031319902E-006;
2.425833333333334E+009;1.664388924837112E-001;-1.009180247783661E-001;4.650135524570942E-003;-1.418725150870159E-005;
2.426000000000000E+009;1.669968813657761E-001;-1.013502329587936E-001;4.736996255815029E-003;-2.471184125170112E-004;
2.426166666666667E+009;1.672979146242142E-001;-1.018428280949593E-001;4.693872760981321E-003;-3.693667531479150E-004;
2.426333333333334E+009;1.673685312271118E-001;-1.023215577006340E-001;4.763017874211073E-003;-6.781169213354588E-004;
2.426500000000000E+009;1.677771806716919E-001;-1.026045978069305E-001;4.863514564931393E-003;-7.903483929112554E-004;
2.426666666666667E+009;1.681146174669266E-001;-1.030637398362160E-001;4.702682606875897E-003;-1.080203684978187E-003;
2.426833333333334E+009;1.682982593774796E-001;-1.032485961914063E-001;4.824245348572731E-003;-1.252575893886387E-003;
2.427000000000000E+009;1.682915687561035E-001;-1.033330559730530E-001;4.829365294426680E-003;-1.381740323267877E-003;
2.427166666666667E+009;1.683896780014038E-001;-1.034584045410156E-001;4.799664951860905E-003;-1.436867751181126E-003;
2.427333333333334E+009;1.683498919010162E-001;-1.036584079265595E-001;4.788409918546677E-003;-1.694426406174898E-003;
2.427500000000000E+009;1.679644286632538E-001;-1.037467718124390E-001;4.843922797590494E-003;-1.891002058982849E-003;
2.427666666666667E+009;1.676315814256668E-001;-1.038251742720604E-001;4.710606765002012E-003;-2.183820120990276E-003;
2.427833333333334E+009;1.672595590353012E-001;-1.039705127477646E-001;4.717340227216482E-003;-2.248882316052914E-003;
