# Version 1.00
#
freq[Hz];re:Trc1_S11;im:Trc1_S11;re:Trc2_S21;im:Trc2_S21;
2.400000000000000E+009;1.584133803844452E-001;6.276708096265793E-002;-1.339085516519845E-003;-1.482401043176651E-003;
2.400166666666667E+009;1.583176255226135E-001;6.128834933042526E-002;-1.393203274346888E-003;-1.351971761323512E-003;
2.400333333333334E+009;1.581321954727173E-001;5.943423137068749E-002;-1.334480592049658E-003;-1.340868882834911E-003;
2.400500000000000E+009;1.581226587295532E-001;5.762716382741928E-002;-1.316958921961486E-003;-1.391225261613727E-003;
2.400666666666667E+009;1.581085473299027E-001;5.557502433657646E-002;-1.469893730245531E-003;-1.284966827370226E-003;
2.400833333333334E+009;1.581068187952042E-001;5.375683307647705E-002;-1.417343737557530E-003;-1.356443855911493E-003;
2.401000000000000E+009;1.581079959869385E-001;5.155888944864273E-002;-1.517365453764796E-003;-1.311387983150780E-003;
2.401166666666667E+009;1.582454890012741E-001;4.938223585486412E-002;-1.342955278232694E-003;-1.190951326861978E-003;
2.401333333333334E+009;1.582349985837936E-001;4.749007895588875E-002;-1.541718491353095E-003;-1.303835771977902E-003;
2.401500000000000E+009;1.586740612983704E-001;4.536237567663193E-002;-1.518969074822962E-003;-1.254146103747189E-003;
2.401666666666667E+009;1.589206159114838E-001;4.333463311195374E-002;-1.476185047067702E-003;-1.288277329877019E-003;
2.401833333333334E+009;1.592389494180679E-001;4.119696840643883E-002;-1.508501940406859E-003;-1.196320168673992E-003;
2.402000000000000E+009;1.594191640615463E-001;3.913227096199989E-002;-1.564835081808269E-003;-1.193960895761848E-003;
2.402166666666667E+009;1.600262075662613E-001;3.710086643695831E-002;-1.540595665574074E-003;-1.182901905849576E-003;
2.402333333333334E+009;1.604833602905273E-001;3.517290949821472E-002;-1.483228057622910E-003;-1.060949289239943E-003;
2.402500000000000E+009;1.612376272678375E-001;3.332187607884407E-002;-1.652637729421258E-003;-1.181385363452137E-003;
2.402666666666667E+009;1.617749184370041E-001;3.155872598290443E-002;-1.545519917272031E-003;-1.044210977852345E-003;
2.402833333333334E+009;1.625441014766693E-001;2.996541000902653E-002;-1.706337439827621E-003;-1.036144443787634E-003;
2.403000000000000E+009;1.632897406816483E-001;2.801410667598248E-002;-1.932330778799951E-003;-9.744287235662341E-004;
2.403166666666667E+009;1.644024103879929E-001;2.655504457652569E-002;-1.662655733525753E-003;-9.958865121006966E-004;
2.403333333333334E+009;1.650836914777756E-001;2.503282949328423E-002;-1.851129229180515E-003;-9.433557861484587E-004;
2.403500000000000E+009;1.659820526838303E-001;2.358466014266014E-002;-1.759324339218438E-003;-8.364028180949390E-004;
2.403666666666667E+009;1.668528765439987E-001;2.208378911018372E-002;-1.823592814616859E-003;-7.729180506430566E-004;
2.403833333333334E+009;1.679615974426270E-001;2.083752863109112E-002;-1.682975795120001E-003;-8.269507088698447E-004;
2.404000000000000E+009;1.689265370368958E-001;1.948934979736805E-002;-1.949489815160632E-003;-7.890352280810475E-004;
2.404166666666667E+009;1.698094159364700E-001;1.828764192759991E-002;-1.905845128931105E-003;-7.592242909595370E-004;
2.404333333333334E+009;1.707308739423752E-001;1.721643283963203E-002;-1.974562648683786E-003;-6.713121547363699E-004;
2.404500000000000E+009;1.715432107448578E-001;1.637545786798000E-002;-2.089591696858406E-003;-6.055895355530083E-004;
2.404666666666667E+009;1.726713478565216E-001;1.534387562423945E-002;-1.900242175906897E-003;-6.472231470979750E-004;
2.404833333333334E+009;1.736638695001602E-001;1.462313253432512E-002;-2.010050695389509E-003;-5.305096856318414E-004;
2.405000000000000E+009;1.746101379394531E-001;1.381773687899113E-002;-2.136080991476774E-003;-6.288426811806858E-004;
2.405166666666667E+009;1.753991842269898E-001;1.321516931056976E-002;-2.087850356474519E-003;-5.025954451411963E-004;
2.405333333333334E+009;1.763030588626862E-001;1.242880430072546E-002;-2.177748596295714E-003;-3.969100071117282E-004;
2.405500000000000E+009;1.770172119140625E-001;1.199777238070965E-002;-2.181170508265495E-003;-3.479115257505328E-004;
2.405666666666667E+009;1.777789741754532E-001;1.159596908837557E-002;-2.148960018530488E-003;-2.149283391190693E-004;
2.405833333333334E+009;1.782052367925644E-001;1.105707511305809E-002;-2.073626266792417E-003;-2.596484846435487E-004;
2.406000000000000E+009;1.789297610521317E-001;1.067776512354612E-002;-2.230386948212981E-003;-1.287631021114066E-004;
2.406166666666667E+009;1.793005317449570E-001;1.043784059584141E-002;-2.074356656521559E-003;-1.057365952874534E-004;
2.406333333333334E+009;1.798646301031113E-001;1.015289966017008E-002;-2.134933369234204E-003;1.729577888909262E-005;
2.406500000000000E+009;1.802210062742233E-001;9.782739914953709E-003;-2.278417581692338E-003;2.109266788465902E-004;
2.406666666666667E+009;1.803692728281021E-001;9.502095170319080E-003;-2.326765097677708E-003;2.150749423890375E-005;
2.406833333333334E+009;1.806204020977020E-001;9.281779639422894E-003;-2.184232231229544E-003;1.626803423278034E-004;
2.407000000000000E+009;1.806649118661881E-001;8.822615258395672E-003;-2.293743658810854E-003;3.004457976203412E-004;
2.407166666666667E+009;1.809331774711609E-001;8.631989359855652E-003;-2.151253633201122E-003;4.901916836388409E-004;
2.407333333333334E+009;1.807649135589600E-001;8.114057593047619E-003;-2.057432895526290E-003;3.636310575529933E-004;
2.407500000000000E+009;1.805716753005981E-001;7.851252332329750E-003;-2.276968676596880E-003;5.062561831437051E-004;
2.407666666666667E+009;1.804623603820801E-001;7.412725593894720E-003;-2.215287880972028E-003;7.169666350819171E-004;
2.407833333333334E+009;1.800859123468399E-001;6.809859070926905E-003;-2.304515102878213E-003;6.785814184695482E-004;
2.408000000000000E+009;1.798358410596848E-001;6.219261325895786E-003;-2.243030350655317E-003;7.039263145998120E-004;
2.408166666666667E+009;1.792526245117188E-001;5.760079715400934E-003;-2.137309173122048E-003;8.329842821694911E-004;
2.408333333333334E+009;1.791425347328186E-001;5.084651522338390E-003;-2.125435974448919E-003;7.915495079942048E-004;
2.408500000000000E+009;1.785424500703812E-001;4.301571752876043E-003;-2.029318828135729E-003;9.782428387552500E-004;
2.408666666666667E+009;1.778975874185562E-001;3.437716979533434E-003;-2.058605430647731E-003;1.112555502913892E-003;
2.408833333333334E+009;1.772542893886566E-001;2.495181048288941E-003;-1.919720903970301E-003;9.797688107937574E-004;
2.409000000000000E+009;1.766035258769989E-001;1.508795539848507E-003;-1.855814247392118E-003;1.117655658163130E-003;
2.409166666666667E+009;1.759081184864044E-001;3.010346263181418E-004;-1.903154770843685E-003;1.233956078067422E-003;
2.409333333333334E+009;1.753030717372894E-001;-7.745591574348509E-004;-1.799089601263404E-003;1.314979162998498E-003;
2.409500000000000E+009;1.743945479393005E-001;-1.986563904210925E-003;-1.573928049765527E-003;1.380108878947794E-003;
2.409666666666667E+009;1.736373007297516E-001;-3.284220816567540E-003;-1.703655230812728E-003;1.594717265106738E-003;
2.409833333333334E+009;1.730781793594360E-001;-4.627612419426441E-003;-1.545588136650622E-003;1.250024884939194E-003;
2.410000000000000E+009;1.725665926933289E-001;-6.226492580026388E-003;-1.603795331902802E-003;1.323901349678636E-003;
2.410166666666667E+009;1.717451959848404E-001;-7.668368518352509E-003;-1.388306845910847E-003;1.417796476744115E-003;
2.410333333333334E+009;1.711613088846207E-001;-9.191669523715973E-003;-1.380602014251053E-003;1.484058331698179E-003;
2.410500000000000E+009;1.705011576414108E-001;-1.086952537298203E-002;-1.366199227049947E-003;1.482653897255659E-003;
2.410666666666667E+009;1.699521392583847E-001;-1.285463757812977E-002;-1.291115535423160E-003;1.551676657982171E-003;
2.410833333333334E+009;1.696494668722153E-001;-1.437790039926767E-002;-1.239274046383798E-003;1.511337235569954E-003;
2.411000000000000E+009;1.691641360521317E-001;-1.610886119306088E-002;-1.235108240507543E-003;1.586641301400960E-003;
2.411166666666667E+009;1.687136590480804E-001;-1.820266060531139E-002;-1.224495470523834E-003;1.667611650191248E-003;
2.411333333333334E+009;1.684387326240540E-001;-1.994816586375237E-002;-1.062971423380077E-003;1.541994162835181E-003;
2.411500000000000E+009;1.681819111108780E-001;-2.203305624425411E-002;-1.069941790774465E-003;1.508998102508485E-003;
2.411666666666667E+009;1.680531203746796E-001;-2.395285665988922E-002;-1.111674821004272E-003;1.586736878380179E-003;
2.411833333333334E+009;1.679403036832809E-001;-2.568626776337624E-002;-1.018042210489512E-003;1.638091867789626E-003;
2.412000000000000E+009;1.680024862289429E-001;-2.774764783680439E-002;-8.885141578502953E-004;1.569668878801167E-003;
2.412166666666667E+009;1.681977808475494E-001;-2.974986471235752E-002;-8.724026265554130E-004;1.672443700954318E-003;
2.412333333333334E+009;1.683177351951599E-001;-3.168156370520592E-002;-8.545204764232040E-004;1.457834150642157E-003;
2.412500000000000E+009;1.684659123420715E-001;-3.344113379716873E-002;-6.905801710672677E-004;1.675518928095698E-003;
2.412666666666667E+009;1.687385886907578E-001;-3.537512943148613E-002;-7.207383168861270E-004;1.565985032357276E-003;
2.412833333333334E+009;1.690624952316284E-001;-3.743682429194450E-002;-8.399974321946502E-004;1.733982586301863E-003;
2.413000000000000E+009;1.694337874650955E-001;-3.918484970927239E-002;-6.683106767013669E-004;1.629021717235446E-003;
2.413166666666667E+009;1.697275042533875E-001;-4.095951840281487E-002;-6.335441139526665E-004;1.697564148344100E-003;
2.413333333333334E+009;1.701756119728088E-001;-4.263745620846748E-002;-6.356668309308589E-004;1.640266506001353E-003;
2.413500000000000E+009;1.706923246383667E-001;-4.439941793680191E-002;-6.085002678446472E-004;1.718715764582157E-003;
2.413666666666667E+009;1.713687777519226E-001;-4.594640061259270E-002;-5.062113050371409E-004;1.779715064913034E-003;
2.413833333333334E+009;1.716872751712799E-001;-4.753611236810684E-002;-4.834763531107456E-004;1.587140606716275E-003;
2.414000000000000E+009;1.722443997859955E-001;-4.903659224510193E-002;-5.904770805500448E-004;1.746438792906702E-003;
2.414166666666667E+009;1.729510128498077E-001;-5.031405761837959E-002;-4.515422042459250E-004;1.703282468952239E-003;
2.414333333333334E+009;1.734146773815155E-001;-5.157516151666641E-002;-3.051818639505655E-004;1.643102150410414E-003;
2.414500000000000E+009;1.740999072790146E-001;-5.281712859869003E-002;-3.287992731202394E-004;1.750999130308628E-003;
2.414666666666667E+009;1.746023446321487E-001;-5.379619449377060E-002;-3.958782763220370E-004;1.769995200447738E-003;
2.414833333333334E+009;1.751956492662430E-001;-5.501231551170349E-002;-3.178528568241745E-004;1.666285214014351E-003;
2.415000000000000E+009;1.754899024963379E-001;-5.582796037197113E-002;-3.104555071331561E-004;1.753121614456177E-003;
2.415166666666667E+009;1.757915169000626E-001;-5.669904500246048E-002;-1.947273558471352E-004;1.848077867180109E-003;
2.415333333333334E+009;1.764861345291138E-001;-5.737500637769699E-002;-9.240632061846554E-005;1.838271738961339E-003;
2.415500000000000E+009;1.768046617507935E-001;-5.809783563017845E-002;-1.370201207464561E-004;1.725390204228461E-003;
2.415666666666667E+009;1.770508736371994E-001;-5.856610089540482E-002;-5.902314660488628E-005;1.782787265256047E-003;
2.415833333333334E+009;1.773167252540588E-001;-5.916481465101242E-002;1.615605469851289E-005;1.695939688943327E-003;
2.416000000000000E+009;1.772318631410599E-001;-5.965520441532135E-002;-6.959940947126597E-005;1.780886435881257E-003;
2.416166666666667E+009;1.774957627058029E-001;-5.996256321668625E-002;-7.422426733683096E-006;1.945292227901518E-003;
2.416333333333334E+009;1.775079965591431E-001;-6.032846868038178E-002;8.217045251512900E-005;1.825701096095145E-003;
2.416500000000000E+009;1.773238331079483E-001;-6.075856834650040E-002;7.223867578431964E-005;1.633131410926580E-003;
2.416666666666667E+009;1.772344708442688E-001;-6.099751219153404E-002;9.916812268784270E-005;1.771200797520578E-003;
2.416833333333334E+009;1.771299690008164E-001;-6.129429116845131E-002;2.644975611474365E-004;1.823302474804223E-003;
2.417000000000000E+009;1.765185147523880E-001;-6.149758771061897E-002;2.999508578795940E-004;1.845944090746343E-003;
2.417166666666667E+009;1.763213127851486E-001;-6.161126121878624E-002;1.531452289782465E-004;1.722881570458412E-003;
2.417333333333334E+009;1.758517622947693E-001;-6.186322122812271E-002;2.221192262368277E-004;1.789977424778044E-003;
2.417500000000000E+009;1.752233803272247E-001;-6.226748600602150E-002;4.542021779343486E-004;1.778379897587001E-003;
2.417666666666667E+009;1.745911240577698E-001;-6.219948828220367E-002;4.630063194781542E-004;1.875119167380035E-003;
2.417833333333334E+009;1.739104986190796E-001;-6.243626400828362E-002;3.311495820526034E-004;1.764023792929947E-003;
2.418000000000000E+009;1.729067862033844E-001;-6.294298171997070E-002;4.637039965018630E-004;1.827029162086546E-003;
2.418166666666667E+009;1.719132959842682E-001;-6.314080953598023E-002;6.406038301065564E-004;1.795272575691342E-003;
2.418333333333334E+009;1.712367832660675E-001;-6.349038332700729E-002;7.485702517442405E-004;1.748244743794203E-003;
2.418500000000000E+009;1.701597124338150E-001;-6.385103613138199E-002;7.266016909852624E-004;1.840224373154342E-003;
2.418666666666667E+009;1.692099124193192E-001;-6.433726102113724E-002;7.497385377064347E-004;1.712788944132626E-003;
2.418833333333334E+009;1.679665595293045E-001;-6.483105570077896E-002;8.679879247210920E-004;1.805593259632587E-003;
2.419000000000000E+009;1.666826009750366E-001;-6.538047641515732E-002;8.785721729509533E-004;1.753642223775387E-003;
2.419166666666667E+009;1.655667722225189E-001;-6.605015695095062E-002;9.891693480312824E-004;1.639408408664167E-003;
2.419333333333334E+009;1.643468737602234E-001;-6.647138297557831E-002;1.144982292316854E-003;1.659331610426307E-003;
2.419500000000000E+009;1.631698608398438E-001;-6.758131086826325E-002;1.016005175188184E-003;1.727179042063654E-003;
2.419666666666667E+009;1.620753258466721E-001;-6.847333908081055E-002;1.099759829230607E-003;1.658615889027715E-003;
2.419833333333334E+009;1.607439517974854E-001;-6.931437551975250E-002;1.095599494874477E-003;1.543636317364872E-003;
2.420000000000000E+009;1.597497612237930E-001;-7.041787356138229E-002;1.225773361511529E-003;1.470905612222850E-003;
2.420166666666667E+009;1.586112529039383E-001;-7.134226709604263E-002;1.306683407165110E-003;1.471760100685060E-003;
2.420333333333334E+009;1.575379967689514E-001;-7.251273095607758E-002;1.283238176256418E-003;1.355851418338716E-003;
2.420500000000000E+009;1.566156446933746E-001;-7.363171130418778E-002;1.350395497865975E-003;1.295067719183862E-003;
2.420666666666667E+009;1.554381251335144E-001;-7.482644170522690E-002;1.478374353609979E-003;1.140076434239745E-003;
2.420833333333334E+009;1.547189801931381E-001;-7.655924558639526E-002;1.421497669070959E-003;1.391572528518736E-003;
2.421000000000000E+009;1.536176502704620E-001;-7.801496982574463E-002;1.381453941576183E-003;1.104978611692786E-003;
2.421166666666667E+009;1.527973115444183E-001;-7.920949161052704E-002;1.434942241758108E-003;1.109214848838747E-003;
2.421333333333334E+009;1.523026823997498E-001;-8.087269216775894E-002;1.458448474295437E-003;1.019935356453061E-003;
2.421500000000000E+009;1.514879018068314E-001;-8.252875506877899E-002;1.415298786014319E-003;9.408407495357096E-004;
2.421666666666667E+009;1.508377790451050E-001;-8.408495783805847E-002;1.480648759752512E-003;9.458467829972506E-004;
2.421833333333334E+009;1.505361646413803E-001;-8.559585362672806E-002;1.498559024184942E-003;9.076336282305419E-004;
2.422000000000000E+009;1.498923152685165E-001;-8.738642930984497E-002;1.553494948893786E-003;7.431872072629631E-004;
2.422166666666667E+009;1.498463153839111E-001;-8.919076621532440E-002;1.546259503811598E-003;6.516163120977581E-004;
2.422333333333334E+009;1.495692133903503E-001;-9.091977030038834E-002;1.305547542870045E-003;6.439727731049061E-004;
2.422500000000000E+009;1.493890136480331E-001;-9.239934384822846E-002;1.353034400381148E-003;7.553622126579285E-004;
2.422666666666667E+009;1.492054760456085E-001;-9.425846487283707E-002;1.291999127715826E-003;4.817306762561202E-004;
2.422833333333334E+009;1.493748724460602E-001;-9.609542042016983E-002;1.242538564838469E-003;5.343654192984104E-004;
2.423000000000000E+009;1.492707133293152E-001;-9.750216454267502E-002;1.203794032335281E-003;5.160631844773889E-004;
2.423166666666667E+009;1.496661156415939E-001;-9.921222180128098E-002;1.312043284997344E-003;6.173329893499613E-004;
2.423333333333334E+009;1.499752104282379E-001;-1.007059812545776E-001;1.177138066850603E-003;4.703802114818245E-004;
2.423500000000000E+009;1.500140875577927E-001;-1.023925319314003E-001;1.177020953036845E-003;4.710459616035223E-004;
2.423666666666667E+009;1.502585411071777E-001;-1.039791479706764E-001;1.051035244017839E-003;5.905826110392809E-004;
2.423833333333334E+009;1.509796380996704E-001;-1.054977700114250E-001;1.302540302276611E-003;5.452838377095759E-004;
2.424000000000000E+009;1.510670483112335E-001;-1.066766977310181E-001;1.166771980933845E-003;4.438062896952033E-004;
2.424166666666667E+009;1.513860970735550E-001;-1.079974994063377E-001;1.344814663752914E-003;6.020494038239121E-004;
2.424333333333334E+009;1.520630121231079E-001;-1.092740520834923E-001;1.283339341171086E-003;5.621063755825162E-004;
2.424500000000000E+009;1.526487320661545E-001;-1.104552596807480E-001;1.086306408978999E-003;7.945629185996950E-004;
2.424666666666667E+009;1.531148254871368E-001;-1.114531159400940E-001;1.158260158263147E-003;5.574999959208071E-004;
2.424833333333334E+009;1.535330265760422E-001;-1.125299856066704E-001;1.238981029018760E-003;5.917589878663421E-004;
2.425000000000000E+009;1.538473814725876E-001;-1.136249601840973E-001;1.155924634076655E-003;7.723405142314732E-004;
2.425166666666667E+009;1.543888747692108E-001;-1.143965274095535E-001;1.277987612411380E-003;7.629528408870101E-004;
2.425333333333334E+009;1.547633856534958E-001;-1.150814071297646E-001;1.464708358980715E-003;7.075816392898560E-004;
2.425500000000000E+009;1.552622765302658E-001;-1.158963739871979E-001;1.457814360037446E-003;7.274745148606598E-004;
2.425666666666667E+009;1.554100513458252E-001;-1.163842454552651E-001;1.390318735502660E-003;7.699473644606769E-004;
2.425833333333334E+009;1.556156575679779E-001;-1.171188652515411E-001;1.543915481306613E-003;9.571096743457019E-004;
2.426000000000000E+009;1.558827906847000E-001;-1.175526976585388E-001;1.570502645336092E-003;7.490959833376110E-004;
2.426166666666667E+009;1.561413705348969E-001;-1.180544719099999E-001;1.730074989609420E-003;6.960849859751761E-004;
2.426333333333334E+009;1.561253815889359E-001;-1.184366494417191E-001;1.741125015541911E-003;7.980989175848663E-004;
2.426500000000000E+009;1.562292128801346E-001;-1.186119541525841E-001;1.800190773792565E-003;6.806782330386341E-004;
2.426666666666667E+009;1.563411056995392E-001;-1.187196075916290E-001;2.063808031380177E-003;8.111827191896737E-004;
2.426833333333334E+009;1.561301350593567E-001;-1.189057305455208E-001;2.012366428971291E-003;6.485875928774476E-004;
2.427000000000000E+009;1.557255983352661E-001;-1.191973909735680E-001;2.049419563263655E-003;6.593514699488878E-004;
2.427166666666667E+009;1.554710119962692E-001;-1.192454025149345E-001;2.070532413199544E-003;4.113453323952854E-004;
2.427333333333334E+009;1.548845916986466E-001;-1.193002387881279E-001;2.113379305228591E-003;4.235140222590417E-004;
2.427500000000000E+009;1.544785201549530E-001;-1.194123253226280E-001;2.316821366548538E-003;4.257372347638011E-004;
2.427666666666667E+009;1.537876576185226E-001;-1.195558905601502E-001;2.287530573084950E-003;3.476235433481634E-004;
2.427833333333334E+009;1.529828757047653E-001;-1.195673421025276E-001;2.510733203962445E-003;8.453773625660688E-005;
