# Version 1.00
#
freq[Hz];re:Trc1_S11;im:Trc1_S11;re:Trc2_S21;im:Trc2_S21;
2.400000000000000E+009;1.585452258586884E-001;6.270018219947815E-002;-1.261699013411999E-003;-1.581454183906317E-003;
2.400166666666667E+009;1.583283990621567E-001;6.113013997673988E-002;-1.486352179199457E-003;-1.551885507069528E-003;
2.400333333333334E+009;1.581831574440002E-001;5.935768410563469E-002;-1.492289709858596E-003;-1.285398495383561E-003;
2.400500000000000E+009;1.580548435449600E-001;5.753039196133614E-002;-1.318100374191999E-003;-1.425802824087441E-003;
2.400666666666667E+009;1.579797416925430E-001;5.540856346487999E-002;-1.578195951879025E-003;-1.452676835469902E-003;
2.400833333333334E+009;1.581461727619171E-001;5.352788418531418E-002;-1.346651581116021E-003;-1.298943301662803E-003;
2.401000000000000E+009;1.580262333154678E-001;5.136779323220253E-002;-1.444475143216550E-003;-1.270791515707970E-003;
2.401166666666667E+009;1.581422537565231E-001;4.941410943865776E-002;-1.540594268590212E-003;-1.125112059526146E-003;
2.401333333333334E+009;1.580672860145569E-001;4.735128954052925E-002;-1.439560670405626E-003;-1.325907884165645E-003;
2.401500000000000E+009;1.585857868194580E-001;4.533706232905388E-002;-1.394834253005683E-003;-1.215715077705681E-003;
2.401666666666667E+009;1.587582081556320E-001;4.325602948665619E-002;-1.392798498272896E-003;-1.212643226608634E-003;
2.401833333333334E+009;1.592503488063812E-001;4.124468564987183E-002;-1.524673542007804E-003;-1.188470050692558E-003;
2.402000000000000E+009;1.596580445766449E-001;3.916862979531288E-002;-1.605204422958195E-003;-1.123119844123721E-003;
2.402166666666667E+009;1.599046438932419E-001;3.709938004612923E-002;-1.591683831065893E-003;-1.109467935748398E-003;
2.402333333333334E+009;1.604276597499847E-001;3.522152826189995E-002;-1.590631320141256E-003;-1.144448411650956E-003;
2.402500000000000E+009;1.610850840806961E-001;3.334689885377884E-002;-1.618766458705068E-003;-1.236557611264288E-003;
2.402666666666667E+009;1.618289798498154E-001;3.165002167224884E-002;-1.629927195608616E-003;-1.169063965789974E-003;
2.402833333333334E+009;1.624844521284103E-001;2.979540638625622E-002;-1.663790550082922E-003;-9.791861521080136E-004;
2.403000000000000E+009;1.632887423038483E-001;2.820626460015774E-002;-1.729659386910498E-003;-9.733217884786427E-004;
2.403166666666667E+009;1.641815751791000E-001;2.670438960194588E-002;-1.793493633158505E-003;-1.050343620590866E-003;
2.403333333333334E+009;1.651443541049957E-001;2.508566901087761E-002;-1.890764920972288E-003;-1.004581456072629E-003;
2.403500000000000E+009;1.659140139818192E-001;2.367804385721684E-002;-1.929083722643554E-003;-9.969962993636727E-004;
2.403666666666667E+009;1.668990999460220E-001;2.226720005273819E-002;-1.885949051938951E-003;-8.348617702722549E-004;
2.403833333333334E+009;1.677661240100861E-001;2.083696424961090E-002;-1.893265638500452E-003;-7.535326876677573E-004;
2.404000000000000E+009;1.688276529312134E-001;1.947602443397045E-002;-1.931863254867494E-003;-7.784107001498342E-004;
2.404166666666667E+009;1.697345823049545E-001;1.846774853765965E-002;-1.837033778429031E-003;-6.777729140594602E-004;
2.404333333333334E+009;1.709459275007248E-001;1.732157729566097E-002;-2.112071728333831E-003;-6.797931855544448E-004;
2.404500000000000E+009;1.715780794620514E-001;1.649915054440498E-002;-1.978049753233790E-003;-6.546684307977557E-004;
2.404666666666667E+009;1.725852489471436E-001;1.556642632931471E-002;-2.010977594181895E-003;-6.439125281758606E-004;
2.404833333333334E+009;1.735151857137680E-001;1.452893763780594E-002;-2.087463624775410E-003;-4.388038651086390E-004;
2.405000000000000E+009;1.744876354932785E-001;1.381284371018410E-002;-2.026978647336364E-003;-3.619310446083546E-004;
2.405166666666667E+009;1.754123121500015E-001;1.316558010876179E-002;-1.995320431888104E-003;-3.805510059464723E-004;
2.405333333333334E+009;1.764102876186371E-001;1.247318834066391E-002;-2.100541489198804E-003;-4.664194129873067E-004;
2.405500000000000E+009;1.771952509880066E-001;1.212674658745527E-002;-2.177049871534109E-003;-3.042711468879134E-004;
2.405666666666667E+009;1.777457594871521E-001;1.159997843205929E-002;-2.199542941525579E-003;-1.978032378247008E-004;
2.405833333333334E+009;1.784336417913437E-001;1.123073510825634E-002;-2.112163230776787E-003;-2.013712364714593E-004;
2.406000000000000E+009;1.790947467088699E-001;1.067213062196970E-002;-2.221172675490379E-003;-5.615579721052200E-005;
2.406166666666667E+009;1.793907284736633E-001;1.036479976028204E-002;-2.075334312394261E-003;8.137689292198047E-005;
2.406333333333334E+009;1.799280494451523E-001;1.020615361630917E-002;-2.219504443928599E-003;-5.596192204393446E-005;
2.406500000000000E+009;1.802078634500504E-001;9.822630323469639E-003;-2.330802381038666E-003;1.437899918528274E-004;
2.406666666666667E+009;1.804259568452835E-001;9.415989741683006E-003;-2.268661512061954E-003;8.825543045531958E-005;
2.406833333333334E+009;1.806204319000244E-001;9.201560169458389E-003;-2.305892296135426E-003;2.924174768850207E-004;
2.407000000000000E+009;1.807697117328644E-001;8.782384917140007E-003;-2.093697665259242E-003;2.688293752726167E-004;
2.407166666666667E+009;1.808574348688126E-001;8.695076219737530E-003;-2.358088735491037E-003;4.168977320659906E-004;
2.407333333333334E+009;1.807909011840820E-001;8.165988139808178E-003;-2.200512215495110E-003;4.055144672747701E-004;
2.407500000000000E+009;1.806390285491943E-001;7.779770996421576E-003;-2.234794665127993E-003;7.739126449450851E-004;
2.407666666666667E+009;1.805286556482315E-001;7.374959997832775E-003;-2.242699498310685E-003;8.682082989253104E-004;
2.407833333333334E+009;1.801007986068726E-001;6.893180310726166E-003;-2.151189604774118E-003;8.843755931593478E-004;
2.408000000000000E+009;1.798812896013260E-001;6.228618789464235E-003;-2.193475840613246E-003;7.909502601251006E-004;
2.408166666666667E+009;1.793248653411865E-001;5.732988007366657E-003;-2.056004479527473E-003;8.667632937431335E-004;
2.408333333333334E+009;1.790536791086197E-001;5.132203921675682E-003;-2.052062889561057E-003;8.604431641288102E-004;
2.408500000000000E+009;1.784873604774475E-001;4.188827704638243E-003;-1.940468209795654E-003;1.012043678201735E-003;
2.408666666666667E+009;1.779809445142746E-001;3.465166548267007E-003;-1.858613220974803E-003;1.038335845805705E-003;
2.408833333333334E+009;1.772628128528595E-001;2.542648697271943E-003;-1.878603827208281E-003;1.078892033547163E-003;
2.409000000000000E+009;1.765587180852890E-001;1.562720048241317E-003;-1.808310509659350E-003;1.286173705011606E-003;
2.409166666666667E+009;1.759733408689499E-001;4.302243760321289E-004;-1.932123326696456E-003;1.427905866876245E-003;
2.409333333333334E+009;1.753619164228439E-001;-7.635959773324430E-004;-1.792727271094918E-003;1.273769768886268E-003;
2.409500000000000E+009;1.745456010103226E-001;-1.888161990791559E-003;-1.583029050379992E-003;1.322955940850079E-003;
2.409666666666667E+009;1.738217622041702E-001;-3.287649946287274E-003;-1.622185693122447E-003;1.419811509549618E-003;
2.409833333333334E+009;1.730768978595734E-001;-4.496385809034109E-003;-1.616942812688649E-003;1.271544257178903E-003;
2.410000000000000E+009;1.725073754787445E-001;-6.114732008427382E-003;-1.521239639259875E-003;1.271123997867107E-003;
2.410166666666667E+009;1.718359291553497E-001;-7.508574053645134E-003;-1.547698280774057E-003;1.453478005714715E-003;
2.410333333333334E+009;1.710946410894394E-001;-9.188594296574593E-003;-1.489589223638177E-003;1.418558415025473E-003;
2.410500000000000E+009;1.705569475889206E-001;-1.079670060425997E-002;-1.328350743278861E-003;1.488484442234039E-003;
2.410666666666667E+009;1.698927283287048E-001;-1.286417059600353E-002;-1.392094301991165E-003;1.498389407061040E-003;
2.410833333333334E+009;1.694780439138413E-001;-1.438807789236307E-002;-1.168887480162084E-003;1.691161189228296E-003;
2.411000000000000E+009;1.691564917564392E-001;-1.610683836042881E-002;-1.369670382700861E-003;1.641568378545344E-003;
2.411166666666667E+009;1.687531620264053E-001;-1.821230724453926E-002;-1.127602183260024E-003;1.550187822431326E-003;
2.411333333333334E+009;1.685175597667694E-001;-1.981053315103054E-002;-1.205657725222409E-003;1.611208892427385E-003;
2.411500000000000E+009;1.682191044092178E-001;-2.208223752677441E-002;-1.114939921535552E-003;1.539072836749256E-003;
2.411666666666667E+009;1.682724356651306E-001;-2.375226467847824E-002;-1.148197101429105E-003;1.770224305801094E-003;
2.411833333333334E+009;1.680927127599716E-001;-2.571837790310383E-002;-1.045192126184702E-003;1.639082329347730E-003;
2.412000000000000E+009;1.682476550340653E-001;-2.784925512969494E-002;-8.808256825432181E-004;1.563952886499465E-003;
2.412166666666667E+009;1.680240780115128E-001;-2.982362732291222E-002;-9.185256785713136E-004;1.690115081146359E-003;
2.412333333333334E+009;1.684062033891678E-001;-3.168771043419838E-002;-9.716711356304586E-004;1.678344677202404E-003;
2.412500000000000E+009;1.684066206216812E-001;-3.363798558712006E-002;-9.850295027717948E-004;1.619931193999946E-003;
2.412666666666667E+009;1.688566803932190E-001;-3.555610030889511E-002;-8.842992829158902E-004;1.607494312338531E-003;
2.412833333333334E+009;1.691149622201920E-001;-3.744361549615860E-002;-8.879837696440518E-004;1.682263566181064E-003;
2.413000000000000E+009;1.693190634250641E-001;-3.918354213237763E-002;-7.941467338241637E-004;1.684620627202094E-003;
2.413166666666667E+009;1.698489338159561E-001;-4.091573134064674E-002;-7.519633509218693E-004;1.782637555152178E-003;
2.413333333333334E+009;1.701252609491348E-001;-4.280903562903404E-002;-5.764985107816756E-004;1.707169110886753E-003;
2.413500000000000E+009;1.708646863698959E-001;-4.445117339491844E-002;-5.794367752969265E-004;1.759079867042601E-003;
2.413666666666667E+009;1.713580191135407E-001;-4.612181335687637E-002;-5.856872885487974E-004;1.648048171773553E-003;
2.413833333333334E+009;1.716921776533127E-001;-4.753950610756874E-002;-5.960446433164179E-004;1.927436329424381E-003;
2.414000000000000E+009;1.721803694963455E-001;-4.908243566751480E-002;-3.707748837769032E-004;1.803872291930020E-003;
2.414166666666667E+009;1.729317307472229E-001;-5.034200102090836E-002;-3.686502750497311E-004;1.786385662853718E-003;
2.414333333333334E+009;1.734003573656082E-001;-5.158245936036110E-002;-3.283547994215041E-004;1.958271488547325E-003;
2.414500000000000E+009;1.741289943456650E-001;-5.276407673954964E-002;-4.261967551428825E-004;1.828330103307962E-003;
2.414666666666667E+009;1.745664924383164E-001;-5.386761575937271E-002;-2.528034674469382E-004;1.940292073413730E-003;
2.414833333333334E+009;1.749992221593857E-001;-5.498909205198288E-002;-2.309453411726281E-004;1.795601099729538E-003;
2.415000000000000E+009;1.755964159965515E-001;-5.580017715692520E-002;-3.301785909570754E-004;1.854050322435796E-003;
2.415166666666667E+009;1.761226654052734E-001;-5.668795853853226E-002;-1.931173319462687E-004;1.738032908178866E-003;
2.415333333333334E+009;1.765439212322235E-001;-5.750197917222977E-002;-5.282015990815125E-005;1.913207699544728E-003;
2.415500000000000E+009;1.767943650484085E-001;-5.804713070392609E-002;-1.613446802366525E-004;1.892268890514970E-003;
2.415666666666667E+009;1.770667731761932E-001;-5.855532735586166E-002;3.862848097924143E-005;1.823774073272944E-003;
2.415833333333334E+009;1.773925423622131E-001;-5.924103036522865E-002;-8.836874621920288E-005;1.729913405142725E-003;
2.416000000000000E+009;1.772758811712265E-001;-5.970489233732224E-002;7.564949191873893E-005;1.778439502231777E-003;
2.416166666666667E+009;1.775620579719544E-001;-6.014576926827431E-002;1.720293948892504E-004;1.719069085083902E-003;
2.416333333333334E+009;1.775994896888733E-001;-6.039454415440559E-002;1.708054332993925E-004;1.913118176162243E-003;
2.416500000000000E+009;1.775273382663727E-001;-6.066934019327164E-002;-4.183072451269254E-005;1.724931062199175E-003;
2.416666666666667E+009;1.772063970565796E-001;-6.088614091277123E-002;3.232697490602732E-004;1.807757420465350E-003;
2.416833333333334E+009;1.771199107170105E-001;-6.129568815231323E-002;2.411942987237126E-004;1.948324381373823E-003;
2.417000000000000E+009;1.766856610774994E-001;-6.153086572885513E-002;3.304658748675138E-004;1.859260490164161E-003;
2.417166666666667E+009;1.762424260377884E-001;-6.167109683156014E-002;3.270515589974821E-004;1.801339210942388E-003;
2.417333333333334E+009;1.758124679327011E-001;-6.178515031933785E-002;3.359768306836486E-004;1.811673282645643E-003;
2.417500000000000E+009;1.751989126205444E-001;-6.222718954086304E-002;5.012965993955731E-004;1.863624667748809E-003;
2.417666666666667E+009;1.746323406696320E-001;-6.225222721695900E-002;5.879426607862115E-004;1.862579723820090E-003;
2.417833333333334E+009;1.738980263471603E-001;-6.245812028646469E-002;5.507107707671821E-004;1.878803712315857E-003;
2.418000000000000E+009;1.729121357202530E-001;-6.288266927003861E-002;6.542637711390853E-004;1.746084191836417E-003;
2.418166666666667E+009;1.720447689294815E-001;-6.302924454212189E-002;7.574280025437474E-004;1.846642931923270E-003;
2.418333333333334E+009;1.713294982910156E-001;-6.342525035142899E-002;7.110446458682418E-004;1.898803049698472E-003;
2.418500000000000E+009;1.702519059181213E-001;-6.390235573053360E-002;7.412633276544511E-004;1.751319854520261E-003;
2.418666666666667E+009;1.691991984844208E-001;-6.433538347482681E-002;7.801610627211630E-004;1.731813186779618E-003;
2.418833333333334E+009;1.678893268108368E-001;-6.480209529399872E-002;1.005621277727187E-003;1.727684633806348E-003;
2.419000000000000E+009;1.667292267084122E-001;-6.544876098632813E-002;9.565300424583256E-004;1.777519239112735E-003;
2.419166666666667E+009;1.657057851552963E-001;-6.607525795698166E-002;1.043178373947740E-003;1.688673277385533E-003;
2.419333333333334E+009;1.643762588500977E-001;-6.642682850360870E-002;1.016181078739464E-003;1.650151447393000E-003;
2.419500000000000E+009;1.633300334215164E-001;-6.751096993684769E-002;9.871780639514327E-004;1.496631419286132E-003;
2.419666666666667E+009;1.621236354112625E-001;-6.845724582672119E-002;1.141550601460040E-003;1.713952166028321E-003;
2.419833333333334E+009;1.609619259834290E-001;-6.919505447149277E-002;1.210057060234249E-003;1.622641924768686E-003;
2.420000000000000E+009;1.599514484405518E-001;-7.024326175451279E-002;1.270839129574597E-003;1.490018097683787E-003;
2.420166666666667E+009;1.586418300867081E-001;-7.127168774604797E-002;1.375128282234073E-003;1.513742492534220E-003;
2.420333333333334E+009;1.576065719127655E-001;-7.248502969741821E-002;1.465148990973830E-003;1.406827126629651E-003;
2.420500000000000E+009;1.566734164953232E-001;-7.359755784273148E-002;1.455790246836841E-003;1.422057510353625E-003;
2.420666666666667E+009;1.556518971920013E-001;-7.483215630054474E-002;1.376488595269620E-003;1.201597973704338E-003;
2.420833333333334E+009;1.548163145780563E-001;-7.624483853578568E-002;1.461661304347217E-003;1.285244361497462E-003;
2.421000000000000E+009;1.539024263620377E-001;-7.773108780384064E-002;1.584038720466197E-003;1.111832330934703E-003;
2.421166666666667E+009;1.531335264444351E-001;-7.933326065540314E-002;1.440902822650969E-003;1.135603291913867E-003;
2.421333333333334E+009;1.523645669221878E-001;-8.084220439195633E-002;1.485599903389812E-003;1.056896406225860E-003;
2.421500000000000E+009;1.515570133924484E-001;-8.241068571805954E-002;1.622772659175098E-003;8.938611135818064E-004;
2.421666666666667E+009;1.510221362113953E-001;-8.401326835155487E-002;1.562087330967188E-003;7.335462141782045E-004;
2.421833333333334E+009;1.507331132888794E-001;-8.579062670469284E-002;1.478043617680669E-003;8.649138035252690E-004;
2.422000000000000E+009;1.502154618501663E-001;-8.753360807895660E-002;1.432127202861011E-003;6.644435343332589E-004;
2.422166666666667E+009;1.498750597238541E-001;-8.921789377927780E-002;1.520297257229686E-003;7.515090983361006E-004;
2.422333333333334E+009;1.495007276535034E-001;-9.081140905618668E-002;1.581860124133527E-003;6.179861375130713E-004;
2.422500000000000E+009;1.494105756282806E-001;-9.249941259622574E-002;1.470977906137705E-003;5.288882530294359E-004;
2.422666666666667E+009;1.491699069738388E-001;-9.428755939006805E-002;1.359996618703008E-003;5.735750892199576E-004;
2.422833333333334E+009;1.493641436100006E-001;-9.607450664043427E-002;1.329022459685803E-003;6.235421751625836E-004;
2.423000000000000E+009;1.494166105985642E-001;-9.758017957210541E-002;1.216428936459124E-003;5.561325233429670E-004;
2.423166666666667E+009;1.497074216604233E-001;-9.933776408433914E-002;1.470724004320800E-003;5.369851714931428E-004;
2.423333333333334E+009;1.498630642890930E-001;-1.007070913910866E-001;1.131424098275602E-003;5.048252060078085E-004;
2.423500000000000E+009;1.502133607864380E-001;-1.025385558605194E-001;1.190282637253404E-003;4.643365391530097E-004;
2.423666666666667E+009;1.503740102052689E-001;-1.040290594100952E-001;1.112009515054524E-003;6.558359600603581E-004;
2.423833333333334E+009;1.508475840091705E-001;-1.054345145821571E-001;1.113330479711294E-003;4.574505728669465E-004;
2.424000000000000E+009;1.511369198560715E-001;-1.066379174590111E-001;1.143725239671767E-003;6.313038757070899E-004;
2.424166666666667E+009;1.515163481235504E-001;-1.080917939543724E-001;1.143696368671954E-003;4.594293131958693E-004;
2.424333333333334E+009;1.521446555852890E-001;-1.093046739697456E-001;1.119905384257436E-003;5.660951719619334E-004;
2.424500000000000E+009;1.526549160480499E-001;-1.103959754109383E-001;1.194064156152308E-003;6.953524425625801E-004;
2.424666666666667E+009;1.531003713607788E-001;-1.115043684840202E-001;1.287492108531296E-003;6.944803171791136E-004;
2.424833333333334E+009;1.535044759511948E-001;-1.126006245613098E-001;1.253430964425206E-003;7.174524944275618E-004;
2.425000000000000E+009;1.540895253419876E-001;-1.136889010667801E-001;1.325345365330577E-003;5.195013945922256E-004;
2.425166666666667E+009;1.543041467666626E-001;-1.143829599022865E-001;1.484883367083967E-003;6.958378362469375E-004;
2.425333333333334E+009;1.548050642013550E-001;-1.151777952909470E-001;1.406167983077467E-003;6.190983112901449E-004;
2.425500000000000E+009;1.551934778690338E-001;-1.158483475446701E-001;1.386971445754170E-003;7.917749462649226E-004;
2.425666666666667E+009;1.553713977336884E-001;-1.165261566638947E-001;1.459040679037571E-003;6.710317684337497E-004;
2.425833333333334E+009;1.556766629219055E-001;-1.169425323605537E-001;1.534262788482010E-003;7.569846929982305E-004;
2.426000000000000E+009;1.559770852327347E-001;-1.175620034337044E-001;1.576526905409992E-003;6.512007676064968E-004;
2.426166666666667E+009;1.562599390745163E-001;-1.179612651467323E-001;1.703591551631689E-003;6.319032399915159E-004;
2.426333333333334E+009;1.562517732381821E-001;-1.182752847671509E-001;1.757882768288255E-003;6.125782383605838E-004;
2.426500000000000E+009;1.563162952661514E-001;-1.186349093914032E-001;1.899154623970389E-003;7.223470020107925E-004;
2.426666666666667E+009;1.563019901514053E-001;-1.187784895300865E-001;1.935606938786805E-003;6.804399308748543E-004;
2.426833333333334E+009;1.561037302017212E-001;-1.188620626926422E-001;1.879793242551386E-003;4.867134557571262E-004;
2.427000000000000E+009;1.557900458574295E-001;-1.191214546561241E-001;2.050980459898710E-003;5.804320680908859E-004;
2.427166666666667E+009;1.554413437843323E-001;-1.192174404859543E-001;2.180033596232534E-003;4.384815983939916E-004;
2.427333333333334E+009;1.549675911664963E-001;-1.193094998598099E-001;2.263153903186321E-003;4.311461816541851E-004;
2.427500000000000E+009;1.544893682003021E-001;-1.193641796708107E-001;2.244146540760994E-003;3.842753067146987E-004;
2.427666666666667E+009;1.538150459527969E-001;-1.195239052176476E-001;2.323677996173501E-003;3.119465545751154E-004;
2.427833333333334E+009;1.530370116233826E-001;-1.195462420582771E-001;2.512851497158408E-003;2.691073459573090E-004;
