# Version 1.00
#
freq[Hz];re:Trc1_S11;im:Trc1_S11;re:Trc2_S21;im:Trc2_S21;
2.400000000000000E+009;1.584182679653168E-001;6.287606060504913E-002;-1.391250523738563E-003;-1.653189538046718E-003;
2.400166666666667E+009;1.583825051784515E-001;6.127749755978584E-002;-1.342558767646551E-003;-1.449265866540372E-003;
2.400333333333334E+009;1.581538319587708E-001;5.927750840783119E-002;-1.210322254337370E-003;-1.416648156009615E-003;
2.400500000000000E+009;1.581565141677856E-001;5.734791606664658E-002;-1.390671124681830E-003;-1.428714371286333E-003;
2.400666666666667E+009;1.579562276601791E-001;5.546121299266815E-002;-1.365606789477170E-003;-1.334067899733782E-003;
2.400833333333334E+009;1.579387187957764E-001;5.357588082551956E-002;-1.375212217681110E-003;-1.376389060169458E-003;
2.401000000000000E+009;1.580204665660858E-001;5.147346854209900E-002;-1.478224527090788E-003;-1.307197962887585E-003;
2.401166666666667E+009;1.581572741270065E-001;4.940402507781982E-002;-1.500452868640423E-003;-1.292417873628438E-003;
2.401333333333334E+009;1.582756787538528E-001;4.723845422267914E-002;-1.395549857988954E-003;-1.262462930753827E-003;
2.401500000000000E+009;1.586025059223175E-001;4.526912048459053E-002;-1.610890845768154E-003;-1.200597966089845E-003;
2.401666666666667E+009;1.588133871555328E-001;4.336063563823700E-002;-1.298743300139904E-003;-1.084552030079067E-003;
2.401833333333334E+009;1.593866050243378E-001;4.117336496710777E-002;-1.540577970445156E-003;-1.129589509218931E-003;
2.402000000000000E+009;1.594330966472626E-001;3.917287290096283E-002;-1.678529311902821E-003;-1.114362268708646E-003;
2.402166666666667E+009;1.598580032587051E-001;3.707943856716156E-002;-1.465700916014612E-003;-1.292191911488771E-003;
2.402333333333334E+009;1.604651510715485E-001;3.514086827635765E-002;-1.597656868398190E-003;-1.194939599372447E-003;
2.402500000000000E+009;1.612874120473862E-001;3.349051624536514E-002;-1.520627643913031E-003;-1.365807838737965E-003;
2.402666666666667E+009;1.618336439132690E-001;3.155421093106270E-002;-1.696095801889896E-003;-1.252282760106027E-003;
2.402833333333334E+009;1.623900979757309E-001;2.979414537549019E-002;-1.769852009601891E-003;-1.074738218449056E-003;
2.403000000000000E+009;1.632490009069443E-001;2.825917489826679E-002;-1.648050849325955E-003;-1.174437813460827E-003;
2.403166666666667E+009;1.642032116651535E-001;2.665371634066105E-002;-1.908753067255020E-003;-1.038317568600178E-003;
2.403333333333334E+009;1.651114225387573E-001;2.507913857698441E-002;-1.585571677424014E-003;-1.091412850655615E-003;
2.403500000000000E+009;1.657495051622391E-001;2.345879189670086E-002;-1.753789139911532E-003;-1.026721904054284E-003;
2.403666666666667E+009;1.667325049638748E-001;2.210771106183529E-002;-1.876659225672483E-003;-7.553839241154492E-004;
2.403833333333334E+009;1.680335849523544E-001;2.094117179512978E-002;-1.931475475430489E-003;-8.679254679009318E-004;
2.404000000000000E+009;1.687957495450974E-001;1.944584399461746E-002;-1.969796372577548E-003;-8.771733846515417E-004;
2.404166666666667E+009;1.698584705591202E-001;1.854209601879120E-002;-2.035537967458367E-003;-7.582071120850742E-004;
2.404333333333334E+009;1.707625687122345E-001;1.748888008296490E-002;-1.993945101276040E-003;-6.573962746188045E-004;
2.404500000000000E+009;1.716296672821045E-001;1.640935242176056E-002;-1.865218509919941E-003;-8.099980768747628E-004;
2.404666666666667E+009;1.725505739450455E-001;1.543663814663887E-002;-2.106049098074436E-003;-7.014274597167969E-004;
2.404833333333334E+009;1.736596077680588E-001;1.464501116424799E-002;-2.097367774695158E-003;-6.597863393835723E-004;
2.405000000000000E+009;1.744929552078247E-001;1.384507399052382E-002;-2.129104919731617E-003;-5.202452302910388E-004;
2.405166666666667E+009;1.753476560115814E-001;1.323605421930552E-002;-2.161570126190782E-003;-4.089886497240514E-004;
2.405333333333334E+009;1.761557459831238E-001;1.233180146664381E-002;-2.188725862652063E-003;-3.650725702755153E-004;
2.405500000000000E+009;1.769621819257736E-001;1.204605773091316E-002;-2.102993661537767E-003;-2.534287341404706E-004;
2.405666666666667E+009;1.777359396219254E-001;1.156855095177889E-002;-2.263420959934592E-003;-1.314832770731300E-004;
2.405833333333334E+009;1.783288270235062E-001;1.119087450206280E-002;-2.080852165818214E-003;-2.916457888204604E-004;
2.406000000000000E+009;1.789012402296066E-001;1.056623924523592E-002;-2.250096993520856E-003;-9.499519364908338E-005;
2.406166666666667E+009;1.793317496776581E-001;1.044221688061953E-002;-2.206249628216028E-003;-6.294649665505858E-006;
2.406333333333334E+009;1.799528449773789E-001;1.007909700274468E-002;-2.225873759016395E-003;-1.162367152574007E-005;
2.406500000000000E+009;1.802706867456436E-001;9.765104390680790E-003;-2.315566642209888E-003;5.339978088159114E-005;
2.406666666666667E+009;1.804249435663223E-001;9.499642066657543E-003;-2.253760816529393E-003;9.309104643762112E-005;
2.406833333333334E+009;1.805821955204010E-001;9.141653776168823E-003;-2.273347461596131E-003;2.814098261296749E-004;
2.407000000000000E+009;1.809260398149490E-001;8.835261687636375E-003;-2.328423550352454E-003;3.273420443292707E-004;
2.407166666666667E+009;1.809858232736588E-001;8.561516180634499E-003;-2.230833983048797E-003;4.411527770571411E-004;
2.407333333333334E+009;1.807417273521423E-001;8.064483292400837E-003;-2.234181622043252E-003;6.550975376740098E-004;
2.407500000000000E+009;1.806841194629669E-001;7.744774688035250E-003;-2.208270132541657E-003;5.360763170756400E-004;
2.407666666666667E+009;1.804686337709427E-001;7.496854756027460E-003;-2.265208400785923E-003;7.147691212594509E-004;
2.407833333333334E+009;1.800768077373505E-001;6.905028130859137E-003;-2.195352688431740E-003;6.752593908458948E-004;
2.408000000000000E+009;1.798850148916245E-001;6.137809250503779E-003;-2.084016334265471E-003;8.432407630607486E-004;
2.408166666666667E+009;1.792666018009186E-001;5.780858453363180E-003;-2.153153065592051E-003;8.402263047173619E-004;
2.408333333333334E+009;1.790049672126770E-001;5.015582311898470E-003;-2.048658207058907E-003;9.013839298859239E-004;
2.408500000000000E+009;1.784817576408386E-001;4.258422181010246E-003;-2.077132463455200E-003;9.189706761389971E-004;
2.408666666666667E+009;1.779821515083313E-001;3.364692209288478E-003;-2.105001360177994E-003;1.114366110414267E-003;
2.408833333333334E+009;1.771865189075470E-001;2.538040513172746E-003;-1.958197681233287E-003;1.090455218218267E-003;
2.409000000000000E+009;1.765850484371185E-001;1.479241647757590E-003;-1.883578137494624E-003;1.220904639922082E-003;
2.409166666666667E+009;1.759631186723709E-001;5.874490598216653E-004;-1.923337578773499E-003;1.255114446394146E-003;
2.409333333333334E+009;1.753368526697159E-001;-6.611680146306753E-004;-1.832566456869245E-003;1.350592938251793E-003;
2.409500000000000E+009;1.745164394378662E-001;-2.028975402936339E-003;-1.781325321644545E-003;1.300919800996780E-003;
2.409666666666667E+009;1.737400293350220E-001;-3.261189442127943E-003;-1.773511292412877E-003;1.278732437640429E-003;
2.409833333333334E+009;1.729956567287445E-001;-4.556332714855671E-003;-1.627546618692577E-003;1.385005190968514E-003;
2.410000000000000E+009;1.724104285240173E-001;-6.175164133310318E-003;-1.718679675832391E-003;1.406496856361628E-003;
2.410166666666667E+009;1.717877686023712E-001;-7.597481366246939E-003;-1.334795495495200E-003;1.601263997144997E-003;
2.410333333333334E+009;1.710435301065445E-001;-9.236738085746765E-003;-1.606491743586958E-003;1.656789565458894E-003;
2.410500000000000E+009;1.704844832420349E-001;-1.096379756927490E-002;-1.430038944818080E-003;1.524427789263427E-003;
2.410666666666667E+009;1.698907017707825E-001;-1.274670846760273E-002;-1.370057580061257E-003;1.505849882960320E-003;
2.410833333333334E+009;1.695574074983597E-001;-1.428182702511549E-002;-1.391603262163699E-003;1.560834934934974E-003;
2.411000000000000E+009;1.690668463706970E-001;-1.634499244391918E-002;-1.362513285130262E-003;1.635650056414306E-003;
2.411166666666667E+009;1.689114421606064E-001;-1.810429804027081E-002;-1.197592704556882E-003;1.646485528908670E-003;
2.411333333333334E+009;1.684270948171616E-001;-1.982535421848297E-002;-1.135101076215506E-003;1.717091305181384E-003;
2.411500000000000E+009;1.681299656629562E-001;-2.197281457483769E-002;-1.107834861613810E-003;1.737662125378847E-003;
2.411666666666667E+009;1.682191044092178E-001;-2.391541190445423E-002;-1.000123680569232E-003;1.690618693828583E-003;
2.411833333333334E+009;1.680226176977158E-001;-2.582654170691967E-002;-1.168199465610087E-003;1.585970516316593E-003;
2.412000000000000E+009;1.681059449911118E-001;-2.776096202433109E-002;-9.186225943267345E-004;1.517123077064753E-003;
2.412166666666667E+009;1.680373400449753E-001;-2.973953634500504E-002;-9.160602930933237E-004;1.805868465453386E-003;
2.412333333333334E+009;1.683460325002670E-001;-3.154563531279564E-002;-8.638158906251192E-004;1.738040475174785E-003;
2.412500000000000E+009;1.685898452997208E-001;-3.355006501078606E-002;-8.495781221427023E-004;1.614724053069949E-003;
2.412666666666667E+009;1.687108576297760E-001;-3.570315614342690E-002;-8.214902481995523E-004;1.759368809871376E-003;
2.412833333333334E+009;1.690632253885269E-001;-3.749031573534012E-002;-7.494076853618026E-004;1.770892762579024E-003;
2.413000000000000E+009;1.693776994943619E-001;-3.909344971179962E-002;-6.952349795028567E-004;1.699062413536012E-003;
2.413166666666667E+009;1.699000597000122E-001;-4.086340591311455E-002;-7.369452505372465E-004;1.801813021302223E-003;
2.413333333333334E+009;1.702790260314941E-001;-4.270727187395096E-002;-8.479144307784736E-004;1.672766404226422E-003;
2.413500000000000E+009;1.708225458860397E-001;-4.434813559055328E-002;-6.855856045149267E-004;1.638808986172080E-003;
2.413666666666667E+009;1.714350432157517E-001;-4.593605175614357E-002;-6.362737040035427E-004;1.875541638582945E-003;
2.413833333333334E+009;1.718263626098633E-001;-4.749210923910141E-002;-6.447770283557475E-004;1.799577614292502E-003;
2.414000000000000E+009;1.721939742565155E-001;-4.904504492878914E-002;-4.325526533648372E-004;1.848574960604310E-003;
2.414166666666667E+009;1.729529649019241E-001;-5.029678344726563E-002;-4.856262239627540E-004;1.919669331982732E-003;
2.414333333333334E+009;1.736173480749130E-001;-5.164273828268051E-002;-3.679481451399624E-004;1.864670193754137E-003;
2.414500000000000E+009;1.741993874311447E-001;-5.265888571739197E-002;-3.411897632759064E-004;1.928058452904224E-003;
2.414666666666667E+009;1.746320575475693E-001;-5.387461557984352E-002;-4.144377890042961E-004;1.701122033409774E-003;
2.414833333333334E+009;1.751107573509216E-001;-5.494175106287003E-002;-2.521026763133705E-004;1.824734616093338E-003;
2.415000000000000E+009;1.755281686782837E-001;-5.581306666135788E-002;-2.131334185833111E-004;1.845254329964519E-003;
2.415166666666667E+009;1.760050356388092E-001;-5.662634596228600E-002;-1.002415592665784E-004;1.941374153830111E-003;
2.415333333333334E+009;1.764876842498779E-001;-5.738367512822151E-002;-6.575008592335507E-005;1.753694028593600E-003;
2.415500000000000E+009;1.766977310180664E-001;-5.809437111020088E-002;-9.982506890082732E-005;2.019148319959641E-003;
2.415666666666667E+009;1.770691722631455E-001;-5.862382426857948E-002;-1.738904975354672E-004;1.798298093490303E-003;
2.415833333333334E+009;1.773301362991333E-001;-5.923129990696907E-002;-7.607605948578566E-005;1.833913149312139E-003;
2.416000000000000E+009;1.773176044225693E-001;-5.961153283715248E-002;-3.584639125620015E-005;1.732340198941529E-003;
2.416166666666667E+009;1.776485890150070E-001;-6.009868904948235E-002;4.852876372751780E-005;1.924253068864346E-003;
2.416333333333334E+009;1.775135099887848E-001;-6.042643636465073E-002;5.872203473700211E-005;2.033797092735767E-003;
2.416500000000000E+009;1.774493306875229E-001;-6.068626418709755E-002;1.795576827134937E-004;1.791093382053077E-003;
2.416666666666667E+009;1.772756874561310E-001;-6.087077781558037E-002;1.142595428973436E-004;1.985629322007299E-003;
2.416833333333334E+009;1.772658079862595E-001;-6.130924075841904E-002;2.726415987126529E-004;1.952316961251199E-003;
2.417000000000000E+009;1.766288876533508E-001;-6.152777001261711E-002;1.337339635938406E-004;1.946045551449060E-003;
2.417166666666667E+009;1.763032674789429E-001;-6.165938079357147E-002;2.722514618653804E-004;1.868348568677902E-003;
2.417333333333334E+009;1.758604347705841E-001;-6.179469823837280E-002;1.848483952926472E-004;1.978324027732015E-003;
2.417500000000000E+009;1.752769500017166E-001;-6.225405260920525E-002;4.344533663243055E-004;1.913746353238821E-003;
2.417666666666667E+009;1.745975762605667E-001;-6.226389482617378E-002;5.022697732783854E-004;1.851029344834387E-003;
2.417833333333334E+009;1.738329827785492E-001;-6.244490295648575E-002;6.417835829779506E-004;1.939085661433637E-003;
2.418000000000000E+009;1.729426234960556E-001;-6.298011541366577E-002;5.836150376126170E-004;1.913290470838547E-003;
2.418166666666667E+009;1.719870865345001E-001;-6.306798756122589E-002;6.609475822187960E-004;1.879262155853212E-003;
2.418333333333334E+009;1.714296340942383E-001;-6.357409060001373E-002;7.277083350345492E-004;1.859091105870903E-003;
2.418500000000000E+009;1.701925992965698E-001;-6.389237940311432E-002;8.118331315927208E-004;1.836276613175869E-003;
2.418666666666667E+009;1.691835224628449E-001;-6.432519108057022E-002;8.344693924300373E-004;1.898874645121396E-003;
2.418833333333334E+009;1.679833531379700E-001;-6.471277028322220E-002;1.003162586130202E-003;1.817608252167702E-003;
2.419000000000000E+009;1.668159961700440E-001;-6.540333479642868E-002;1.042878255248070E-003;1.832827925682068E-003;
2.419166666666667E+009;1.656757891178131E-001;-6.598698347806931E-002;9.633987792767584E-004;1.815040712244809E-003;
2.419333333333334E+009;1.643863022327423E-001;-6.661789119243622E-002;1.131026190705597E-003;1.741654938086867E-003;
2.419500000000000E+009;1.632388234138489E-001;-6.750045716762543E-002;1.024138880893588E-003;1.767022651620209E-003;
2.419666666666667E+009;1.622488200664520E-001;-6.822641938924789E-002;1.230775495059788E-003;1.717279665172100E-003;
2.419833333333334E+009;1.608167141675949E-001;-6.911874562501907E-002;1.354904263280332E-003;1.565113547258079E-003;
2.420000000000000E+009;1.597592234611511E-001;-7.021019607782364E-002;1.350652426481247E-003;1.564194099046290E-003;
2.420166666666667E+009;1.586982756853104E-001;-7.133524119853973E-002;1.338643953204155E-003;1.317803631536663E-003;
2.420333333333334E+009;1.576105058193207E-001;-7.261255383491516E-002;1.470719114877284E-003;1.467793248593807E-003;
2.420500000000000E+009;1.567506790161133E-001;-7.360592484474182E-002;1.483834697864950E-003;1.281325472518802E-003;
2.420666666666667E+009;1.554709374904633E-001;-7.493478059768677E-002;1.376295695081353E-003;1.206983230076730E-003;
2.420833333333334E+009;1.546617448329926E-001;-7.623680680990219E-002;1.380270463414490E-003;1.166893634945154E-003;
2.421000000000000E+009;1.536490321159363E-001;-7.781252264976502E-002;1.525837928056717E-003;1.131319324485958E-003;
2.421166666666667E+009;1.530594229698181E-001;-7.937987148761749E-002;1.559115713462234E-003;1.108226599171758E-003;
2.421333333333334E+009;1.524373888969421E-001;-8.072008192539215E-002;1.683074166066945E-003;1.030726823955774E-003;
2.421500000000000E+009;1.515885442495346E-001;-8.237688988447189E-002;1.632171915844083E-003;9.843936422839761E-004;
2.421666666666667E+009;1.509812772274017E-001;-8.397735655307770E-002;1.614022301509976E-003;8.137464756146073E-004;
2.421833333333334E+009;1.507079452276230E-001;-8.567529916763306E-002;1.585148973390460E-003;7.127385470084846E-004;
2.422000000000000E+009;1.503164470195770E-001;-8.749791979789734E-002;1.554463873617351E-003;7.069710991345346E-004;
2.422166666666667E+009;1.499098092317581E-001;-8.929006010293961E-002;1.645937445573509E-003;6.805921439081430E-004;
2.422333333333334E+009;1.496334373950958E-001;-9.092874825000763E-002;1.478598220273852E-003;7.255435339175165E-004;
2.422500000000000E+009;1.493773609399796E-001;-9.234549850225449E-002;1.495853532105684E-003;6.083959015086293E-004;
2.422666666666667E+009;1.492684185504913E-001;-9.420979768037796E-002;1.412215176969767E-003;5.352887092158198E-004;
2.422833333333334E+009;1.493842452764511E-001;-9.596364945173264E-002;1.426377333700657E-003;4.597862134687603E-004;
2.423000000000000E+009;1.493625342845917E-001;-9.763829410076141E-002;1.244514016434550E-003;5.656713037751615E-004;
2.423166666666667E+009;1.497364640235901E-001;-9.930568188428879E-002;1.395309576764703E-003;4.176087968517095E-004;
2.423333333333334E+009;1.500705927610397E-001;-1.005169451236725E-001;1.344693708233535E-003;5.096223321743310E-004;
2.423500000000000E+009;1.500987410545349E-001;-1.024106144905090E-001;1.160893472842872E-003;5.062972777523100E-004;
2.423666666666667E+009;1.503983289003372E-001;-1.040840223431587E-001;1.338568516075611E-003;5.479860701598227E-004;
2.423833333333334E+009;1.509132683277130E-001;-1.054835170507431E-001;1.197215286083520E-003;5.146363982930780E-004;
2.424000000000000E+009;1.511756181716919E-001;-1.067702025175095E-001;1.190058421343565E-003;5.780200008302927E-004;
2.424166666666667E+009;1.515743881464005E-001;-1.081528663635254E-001;1.226717606186867E-003;5.231514223851264E-004;
2.424333333333334E+009;1.522190570831299E-001;-1.093088835477829E-001;1.197646372020245E-003;7.016016752459109E-004;
2.424500000000000E+009;1.527222245931625E-001;-1.106176227331162E-001;1.234200084581971E-003;6.343765999190509E-004;
2.424666666666667E+009;1.531851291656494E-001;-1.115267425775528E-001;1.177323283627629E-003;6.552838021889329E-004;
2.424833333333334E+009;1.533934623003006E-001;-1.125957965850830E-001;1.221175072714686E-003;5.236814031377435E-004;
2.425000000000000E+009;1.541485935449600E-001;-1.135423481464386E-001;1.233752467669547E-003;5.906490259803832E-004;
2.425166666666667E+009;1.542872190475464E-001;-1.143525838851929E-001;1.364389783702791E-003;8.000871748663485E-004;
2.425333333333334E+009;1.547504067420960E-001;-1.152109801769257E-001;1.347132143564522E-003;7.539098733104765E-004;
2.425500000000000E+009;1.552622020244598E-001;-1.159344017505646E-001;1.550131710246205E-003;6.752267945557833E-004;
2.425666666666667E+009;1.554774641990662E-001;-1.164883971214294E-001;1.684363232925534E-003;5.977195105515420E-004;
2.425833333333334E+009;1.557064652442932E-001;-1.169850453734398E-001;1.598020317032933E-003;7.895414601080120E-004;
2.426000000000000E+009;1.559578776359558E-001;-1.176409050822258E-001;1.658295979723334E-003;7.943127420730889E-004;
2.426166666666667E+009;1.563008725643158E-001;-1.180985048413277E-001;1.853378023952246E-003;7.683828589506447E-004;
2.426333333333334E+009;1.561974138021469E-001;-1.184747591614723E-001;1.861641299910843E-003;5.978359258733690E-004;
2.426500000000000E+009;1.563436836004257E-001;-1.186358109116554E-001;1.809447188861668E-003;5.297348252497613E-004;
2.426666666666667E+009;1.562717407941818E-001;-1.187382116913796E-001;1.834517461247742E-003;7.015551091171801E-004;
2.426833333333334E+009;1.561087816953659E-001;-1.189984455704689E-001;2.060529077425599E-003;5.242907791398466E-004;
2.427000000000000E+009;1.557670980691910E-001;-1.191988289356232E-001;2.012207871302962E-003;3.822862927336246E-004;
2.427166666666667E+009;1.553792804479599E-001;-1.192648559808731E-001;2.203437499701977E-003;3.856453404296190E-004;
2.427333333333334E+009;1.549548208713532E-001;-1.192965954542160E-001;2.144021447747946E-003;3.566289087757468E-004;
2.427500000000000E+009;1.544834822416306E-001;-1.194782033562660E-001;2.284775720909238E-003;2.960556594189256E-004;
2.427666666666667E+009;1.538020521402359E-001;-1.194601580500603E-001;2.322894753888249E-003;2.730776031967253E-004;
2.427833333333334E+009;1.529540270566940E-001;-1.195602118968964E-001;2.459810348227620E-003;1.394958671880886E-004;
