# Version 1.00
#
freq[Hz];re:Trc1_S11;im:Trc1_S11;re:Trc2_S21;im:Trc2_S21;
2.400000000000000E+009;1.585713922977448E-001;6.273386627435684E-002;-1.295165391638875E-003;-1.513098250143230E-003;
2.400166666666667E+009;1.582452058792114E-001;6.136796995997429E-002;-1.369962701573968E-003;-1.520926016382873E-003;
2.400333333333334E+009;1.582597345113754E-001;5.928795039653778E-002;-1.469706534408033E-003;-1.478992286138237E-003;
2.400500000000000E+009;1.581525802612305E-001;5.754710733890533E-002;-1.510403933934867E-003;-1.349421334452927E-003;
2.400666666666667E+009;1.579935401678085E-001;5.538173392415047E-002;-1.192434341646731E-003;-1.315514673478901E-003;
2.400833333333334E+009;1.580515652894974E-001;5.358565971255302E-002;-1.455280813388526E-003;-1.255898503586650E-003;
2.401000000000000E+009;1.579851061105728E-001;5.151373520493507E-002;-1.407750183716416E-003;-1.291320775635541E-003;
2.401166666666667E+009;1.581841707229614E-001;4.925253614783287E-002;-1.473199808970094E-003;-1.223098253831267E-003;
2.401333333333334E+009;1.582362353801727E-001;4.733159020543098E-002;-1.375945517793298E-003;-1.235381467267871E-003;
2.401500000000000E+009;1.585285812616348E-001;4.516575857996941E-002;-1.581619959324598E-003;-1.259138458408415E-003;
2.401666666666667E+009;1.587977111339569E-001;4.328121989965439E-002;-1.369253848679364E-003;-1.210243790410459E-003;
2.401833333333334E+009;1.589788347482681E-001;4.123195633292198E-002;-1.454113284125924E-003;-1.134045538492501E-003;
2.402000000000000E+009;1.594657599925995E-001;3.906182944774628E-002;-1.676256884820759E-003;-1.275441725738347E-003;
2.402166666666667E+009;1.598178893327713E-001;3.720518201589584E-002;-1.464007422327995E-003;-1.209672540426254E-003;
2.402333333333334E+009;1.603593379259110E-001;3.518312796950340E-002;-1.672004698775709E-003;-1.117258914746344E-003;
2.402500000000000E+009;1.611488759517670E-001;3.334313258528709E-002;-1.769783906638622E-003;-1.240333309397101E-003;
2.402666666666667E+009;1.618029177188873E-001;3.163366392254829E-002;-1.875668182037771E-003;-1.159460167400539E-003;
2.402833333333334E+009;1.626908332109451E-001;2.987755835056305E-002;-1.728867646306753E-003;-1.191622111946344E-003;
2.403000000000000E+009;1.632033586502075E-001;2.815711125731468E-002;-1.823441009037197E-003;-1.170937321148813E-003;
2.403166666666667E+009;1.641764193773270E-001;2.662550285458565E-002;-1.660196227021515E-003;-1.127344556152821E-003;
2.403333333333334E+009;1.651114672422409E-001;2.505764737725258E-002;-1.831517787650228E-003;-1.002666424028575E-003;
2.403500000000000E+009;1.658161431550980E-001;2.346626482903957E-002;-1.782607752829790E-003;-1.004269463010132E-003;
2.403666666666667E+009;1.667867004871368E-001;2.200694754719734E-002;-1.786519773304462E-003;-9.252919699065387E-004;
2.403833333333334E+009;1.679786741733551E-001;2.080981433391571E-002;-1.841640332713723E-003;-8.882421534508467E-004;
2.404000000000000E+009;1.688939332962036E-001;1.966085843741894E-002;-1.839331118389964E-003;-8.806600235402584E-004;
2.404166666666667E+009;1.696991026401520E-001;1.840104907751083E-002;-2.063412684947252E-003;-8.599529392085969E-004;
2.404333333333334E+009;1.707870364189148E-001;1.723657362163067E-002;-2.063198015093803E-003;-6.766112637706101E-004;
2.404500000000000E+009;1.717480719089508E-001;1.639862544834614E-002;-2.030121162533760E-003;-7.219148683361709E-004;
2.404666666666667E+009;1.727162301540375E-001;1.553919259458780E-002;-2.179359085857868E-003;-5.529029876925051E-004;
2.404833333333334E+009;1.735830456018448E-001;1.471982430666685E-002;-1.935419510118663E-003;-6.102866027504206E-004;
2.405000000000000E+009;1.744861453771591E-001;1.386100146919489E-002;-2.116281539201737E-003;-6.160057382658124E-004;
2.405166666666667E+009;1.753717660903931E-001;1.315264031291008E-002;-2.115776762366295E-003;-4.900639760307968E-004;
2.405333333333334E+009;1.762482672929764E-001;1.243870425969362E-002;-2.107744337990880E-003;-5.108416080474854E-004;
2.405500000000000E+009;1.769738495349884E-001;1.205250620841980E-002;-2.165094716474414E-003;-3.473488322924823E-004;
2.405666666666667E+009;1.777241080999374E-001;1.148073002696037E-002;-2.250282559543848E-003;-3.296990471426398E-004;
2.405833333333334E+009;1.781114935874939E-001;1.117613539099693E-002;-2.526749623939395E-003;-3.260690718889237E-004;
2.406000000000000E+009;1.788971424102783E-001;1.065103337168694E-002;-2.326264278963208E-003;-2.402786049060524E-004;
2.406166666666667E+009;1.792754679918289E-001;1.046860963106155E-002;-2.301065716892481E-003;-1.269641652470455E-004;
2.406333333333334E+009;1.799862235784531E-001;1.019001193344593E-002;-2.284075599163771E-003;-1.802333717932925E-004;
2.406500000000000E+009;1.800925582647324E-001;9.889989160001278E-003;-2.462071133777499E-003;8.062516280915588E-005;
2.406666666666667E+009;1.803070306777954E-001;9.518247097730637E-003;-2.373865339905024E-003;1.348151126876473E-004;
2.406833333333334E+009;1.806580126285553E-001;9.233937598764896E-003;-2.308678114786744E-003;2.530422643758357E-004;
2.407000000000000E+009;1.807832121849060E-001;8.901292458176613E-003;-2.215439453721046E-003;1.580032985657454E-004;
2.407166666666667E+009;1.809539496898651E-001;8.653918281197548E-003;-2.386901294812560E-003;3.548330860212445E-004;
2.407333333333334E+009;1.807114630937576E-001;8.223976939916611E-003;-2.317296573892236E-003;4.773494729306549E-004;
2.407500000000000E+009;1.805672943592072E-001;7.798361591994762E-003;-2.297279657796025E-003;5.279821343719959E-004;
2.407666666666667E+009;1.804617941379547E-001;7.506484165787697E-003;-2.240954898297787E-003;4.362043400760740E-004;
2.407833333333334E+009;1.800578087568283E-001;6.762065924704075E-003;-2.276266925036907E-003;7.042392971925438E-004;
2.408000000000000E+009;1.797518134117127E-001;6.222357507795095E-003;-2.051091520115733E-003;7.675265660509467E-004;
2.408166666666667E+009;1.793114840984345E-001;5.794883705675602E-003;-2.213273430243135E-003;7.539349026046693E-004;
2.408333333333334E+009;1.791767179965973E-001;5.066306330263615E-003;-2.003264147788286E-003;8.645611233077943E-004;
2.408500000000000E+009;1.783792674541473E-001;4.225712269544601E-003;-1.946831704117358E-003;1.029462902806699E-003;
2.408666666666667E+009;1.779350340366364E-001;3.333850298076868E-003;-2.046554116532207E-003;1.070995465852320E-003;
2.408833333333334E+009;1.771151870489121E-001;2.449322957545519E-003;-1.974642975255847E-003;1.136988983489573E-003;
2.409000000000000E+009;1.765101402997971E-001;1.660406589508057E-003;-1.797477831132710E-003;1.105421804822981E-003;
2.409166666666667E+009;1.758489012718201E-001;4.370262322481722E-004;-1.893819659017026E-003;1.243699924089015E-003;
2.409333333333334E+009;1.752038896083832E-001;-7.920823991298676E-004;-1.840327400714159E-003;1.327343867160380E-003;
2.409500000000000E+009;1.744322031736374E-001;-2.192368265241385E-003;-1.667729578912258E-003;1.287425518967211E-003;
2.409666666666667E+009;1.736505776643753E-001;-3.352627158164978E-003;-1.767707173712552E-003;1.369524979963899E-003;
2.409833333333334E+009;1.730086207389832E-001;-4.689191002398729E-003;-1.637718756683171E-003;1.525922911241651E-003;
2.410000000000000E+009;1.725068241357803E-001;-6.262551527470350E-003;-1.681760186329484E-003;1.426552771590650E-003;
2.410166666666667E+009;1.716382652521133E-001;-7.770251948386431E-003;-1.616676221601665E-003;1.481575542129576E-003;
2.410333333333334E+009;1.710624843835831E-001;-9.352059103548527E-003;-1.585618359968066E-003;1.351903658360243E-003;
2.410500000000000E+009;1.704880595207214E-001;-1.085084397345781E-002;-1.294477260671556E-003;1.480084261856973E-003;
2.410666666666667E+009;1.698539853096008E-001;-1.268543023616076E-002;-1.260983408428729E-003;1.497800811193883E-003;
2.410833333333334E+009;1.695121526718140E-001;-1.447604130953550E-002;-1.384026720188558E-003;1.650837366469204E-003;
2.411000000000000E+009;1.690214574337006E-001;-1.622902043163776E-002;-1.278596464544535E-003;1.568510080687702E-003;
2.411166666666667E+009;1.686382889747620E-001;-1.804147288203239E-002;-1.064719748683274E-003;1.670187106356025E-003;
2.411333333333334E+009;1.684588491916657E-001;-1.991419866681099E-002;-1.214278629049659E-003;1.673175487667322E-003;
2.411500000000000E+009;1.681835353374481E-001;-2.206839062273502E-002;-9.277014760300517E-004;1.534986658953130E-003;
2.411666666666667E+009;1.681137531995773E-001;-2.396624535322189E-002;-1.062648836523294E-003;1.755722099915147E-003;
2.411833333333334E+009;1.680589914321899E-001;-2.578819915652275E-002;-9.963104967027903E-004;1.584132551215589E-003;
2.412000000000000E+009;1.680293083190918E-001;-2.783559821546078E-002;-9.294632473029196E-004;1.743814907968044E-003;
2.412166666666667E+009;1.679199039936066E-001;-2.984617277979851E-002;-1.019496936351061E-003;1.533447648398578E-003;
2.412333333333334E+009;1.683069467544556E-001;-3.171956539154053E-002;-9.091972024179995E-004;1.878000795841217E-003;
2.412500000000000E+009;1.683498620986939E-001;-3.343572467565537E-002;-9.537363075651228E-004;1.509777037426829E-003;
2.412666666666667E+009;1.687595844268799E-001;-3.556479886174202E-002;-9.185613016597927E-004;1.615557353943586E-003;
2.412833333333334E+009;1.690841019153595E-001;-3.740037232637405E-002;-8.526298915967345E-004;1.722255605272949E-003;
2.413000000000000E+009;1.693911105394363E-001;-3.914945200085640E-002;-7.129822624847293E-004;1.758786384016275E-003;
2.413166666666667E+009;1.698881685733795E-001;-4.104204475879669E-002;-6.058161961846054E-004;1.830736175179482E-003;
2.413333333333334E+009;1.701778173446655E-001;-4.271043092012405E-002;-6.722991820424795E-004;1.724877627566457E-003;
2.413500000000000E+009;1.709272563457489E-001;-4.441732540726662E-002;-7.138047367334366E-004;1.900866045616567E-003;
2.413666666666667E+009;1.713621020317078E-001;-4.614717885851860E-002;-6.755964714102447E-004;1.772823743522167E-003;
2.413833333333334E+009;1.718985140323639E-001;-4.754908382892609E-002;-5.529678892344236E-004;1.980858854949474E-003;
2.414000000000000E+009;1.723232716321945E-001;-4.898440837860107E-002;-5.925092846155167E-004;1.776545075699687E-003;
2.414166666666667E+009;1.729689389467239E-001;-5.035061761736870E-002;-4.539829096756876E-004;1.702087698504329E-003;
2.414333333333334E+009;1.734620630741119E-001;-5.167777463793755E-002;-3.210367867723107E-004;1.991510856896639E-003;
2.414500000000000E+009;1.742460131645203E-001;-5.274206027388573E-002;-2.848558651749045E-004;1.837708405219019E-003;
2.414666666666667E+009;1.745505183935165E-001;-5.387048795819283E-002;-2.569623175077140E-004;1.910216291435063E-003;
2.414833333333334E+009;1.751978546380997E-001;-5.493655800819397E-002;-3.402494767215103E-004;1.759416540153325E-003;
2.415000000000000E+009;1.755588352680206E-001;-5.566823109984398E-002;-2.296348247909918E-004;1.835373812355101E-003;
2.415166666666667E+009;1.758780777454376E-001;-5.673156306147575E-002;-1.967080752365291E-004;1.864515827037394E-003;
2.415333333333334E+009;1.764778345823288E-001;-5.750596523284912E-002;-1.444802328478545E-004;1.814791699871421E-003;
2.415500000000000E+009;1.767562329769135E-001;-5.807014927268028E-002;-1.515729090897366E-004;1.891707885079086E-003;
2.415666666666667E+009;1.770667582750320E-001;-5.859242752194405E-002;-1.966090203495696E-004;1.812294940464199E-003;
2.415833333333334E+009;1.773803383111954E-001;-5.918256938457489E-002;-1.328960788669065E-004;1.905268756672740E-003;
2.416000000000000E+009;1.772727370262146E-001;-5.969120562076569E-002;6.239952199393883E-005;1.750687020830810E-003;
2.416166666666667E+009;1.776835024356842E-001;-6.005751714110375E-002;4.982195605407469E-005;1.949492027051747E-003;
2.416333333333334E+009;1.776075661182404E-001;-6.039356067776680E-002;-8.978946425486356E-005;1.825282350182533E-003;
2.416500000000000E+009;1.775592565536499E-001;-6.077660620212555E-002;6.016649786033668E-005;1.837960211560130E-003;
2.416666666666667E+009;1.772660315036774E-001;-6.094581261277199E-002;2.767858095467091E-004;2.056397497653961E-003;
2.416833333333334E+009;1.772004365921021E-001;-6.127766519784927E-002;1.960618974408135E-004;2.013031160458922E-003;
2.417000000000000E+009;1.766530722379684E-001;-6.152262538671494E-002;3.290672029834241E-004;1.882649492472410E-003;
2.417166666666667E+009;1.763419210910797E-001;-6.157162413001061E-002;3.108245728071779E-004;1.840132754296064E-003;
2.417333333333334E+009;1.758568137884140E-001;-6.186868622899056E-002;3.264209954068065E-004;1.947727403603494E-003;
2.417500000000000E+009;1.752889305353165E-001;-6.207980215549469E-002;4.244210140313953E-004;1.914964173920453E-003;
2.417666666666667E+009;1.745711863040924E-001;-6.227730587124825E-002;5.732583813369274E-004;1.899019815027714E-003;
2.417833333333334E+009;1.738784164190292E-001;-6.246597692370415E-002;5.643824697472155E-004;1.901617855764926E-003;
2.418000000000000E+009;1.729891449213028E-001;-6.294969469308853E-002;5.425353301689029E-004;1.963100861757994E-003;
2.418166666666667E+009;1.720447689294815E-001;-6.305468082427979E-002;5.767187103629112E-004;1.867575105279684E-003;
2.418333333333334E+009;1.714250296354294E-001;-6.343597173690796E-002;8.325574453920126E-004;1.838654396124184E-003;
2.418500000000000E+009;1.702261418104172E-001;-6.398937851190567E-002;7.750788936391473E-004;1.737330458126962E-003;
2.418666666666667E+009;1.692995876073837E-001;-6.435612589120865E-002;7.619798998348415E-004;1.762911444529891E-003;
2.418833333333334E+009;1.679863780736923E-001;-6.482980400323868E-002;9.748540469445288E-004;1.732379896566272E-003;
2.419000000000000E+009;1.667645275592804E-001;-6.544653326272965E-002;9.004065068438649E-004;1.781338942237198E-003;
2.419166666666667E+009;1.656347811222076E-001;-6.603503972291946E-002;1.113778795115650E-003;1.647460507228971E-003;
2.419333333333334E+009;1.643278598785400E-001;-6.661678105592728E-002;9.606803650967777E-004;1.736900652758777E-003;
2.419500000000000E+009;1.632106155157089E-001;-6.759246438741684E-002;1.229682704433799E-003;1.733109587803483E-003;
2.419666666666667E+009;1.621634662151337E-001;-6.843690574169159E-002;1.239211065694690E-003;1.728813862428069E-003;
2.419833333333334E+009;1.608808636665344E-001;-6.914497911930084E-002;1.354793435893953E-003;1.652026665396988E-003;
2.420000000000000E+009;1.598669886589050E-001;-7.042552530765533E-002;1.258044503629208E-003;1.531074056401849E-003;
2.420166666666667E+009;1.585988402366638E-001;-7.133687287569046E-002;1.394218183122575E-003;1.626553945243359E-003;
2.420333333333334E+009;1.575694531202316E-001;-7.258711010217667E-002;1.480694394558668E-003;1.515284413471818E-003;
2.420500000000000E+009;1.566347181797028E-001;-7.365370541810989E-002;1.527061336673796E-003;1.409675111062825E-003;
2.420666666666667E+009;1.553309112787247E-001;-7.495982944965363E-002;1.389158191159368E-003;1.375478925183415E-003;
2.420833333333334E+009;1.546159535646439E-001;-7.635015994310379E-002;1.601080410182476E-003;1.351799350231886E-003;
2.421000000000000E+009;1.535070687532425E-001;-7.779838144779205E-002;1.713396282866597E-003;1.164735644124448E-003;
2.421166666666667E+009;1.529451608657837E-001;-7.916075736284256E-002;1.471607247367501E-003;1.125819748267531E-003;
2.421333333333334E+009;1.522167921066284E-001;-8.090303838253021E-002;1.666985685005784E-003;1.080827903933823E-003;
2.421500000000000E+009;1.514517813920975E-001;-8.239004015922546E-002;1.698971027508378E-003;9.805359877645969E-004;
2.421666666666667E+009;1.509686708450317E-001;-8.413193374872208E-002;1.651742262765765E-003;8.259839960373938E-004;
2.421833333333334E+009;1.505759060382843E-001;-8.556361496448517E-002;1.610185601748526E-003;8.890334866009653E-004;
2.422000000000000E+009;1.500371545553207E-001;-8.748964965343475E-002;1.443430897779763E-003;7.542744278907776E-004;
2.422166666666667E+009;1.497489809989929E-001;-8.926865458488464E-002;1.708578667603433E-003;5.743714864365757E-004;
2.422333333333334E+009;1.495531797409058E-001;-9.074527025222778E-002;1.582942088134587E-003;4.653569776564837E-004;
2.422500000000000E+009;1.492939293384552E-001;-9.245387464761734E-002;1.565656624734402E-003;5.270849796943367E-004;
2.422666666666667E+009;1.492708772420883E-001;-9.424354881048203E-002;1.449485193006694E-003;4.993561306037009E-004;
2.422833333333334E+009;1.493491530418396E-001;-9.610842913389206E-002;1.520250923931599E-003;6.642900407314301E-004;
2.423000000000000E+009;1.495376527309418E-001;-9.759160131216049E-002;1.370184705592692E-003;4.867377865593880E-004;
2.423166666666667E+009;1.496765166521072E-001;-9.924234449863434E-002;1.332676038146019E-003;3.794587391894311E-004;
2.423333333333334E+009;1.499721705913544E-001;-1.007061302661896E-001;1.231774920597673E-003;3.398809349164367E-004;
2.423500000000000E+009;1.501773893833160E-001;-1.025145575404167E-001;1.172008109278977E-003;3.958719898946583E-004;
2.423666666666667E+009;1.504121869802475E-001;-1.039281561970711E-001;1.449375879019499E-003;5.653107073158026E-004;
2.423833333333334E+009;1.509602218866348E-001;-1.055412068963051E-001;1.179411308839917E-003;4.415921866893768E-004;
2.424000000000000E+009;1.511662006378174E-001;-1.067060604691505E-001;1.064301701262593E-003;5.505652516148984E-004;
2.424166666666667E+009;1.516199558973312E-001;-1.081866845488548E-001;1.097528380341828E-003;4.974141484126449E-004;
2.424333333333334E+009;1.521427631378174E-001;-1.093600019812584E-001;1.217844546772540E-003;5.159319262020290E-004;
2.424500000000000E+009;1.525602340698242E-001;-1.106106266379356E-001;1.164780347608030E-003;7.756894337944686E-004;
2.424666666666667E+009;1.531945914030075E-001;-1.116153076291084E-001;1.184613793157041E-003;5.774434539489448E-004;
2.424833333333334E+009;1.534368395805359E-001;-1.125903353095055E-001;1.351931015960872E-003;7.383077172562480E-004;
2.425000000000000E+009;1.540451198816299E-001;-1.137458458542824E-001;1.180450664833188E-003;5.337838665582240E-004;
2.425166666666667E+009;1.542611718177795E-001;-1.144678145647049E-001;1.357534201815724E-003;7.299481658264995E-004;
2.425333333333334E+009;1.548011600971222E-001;-1.151806563138962E-001;1.415202044881880E-003;8.084728615358472E-004;
2.425500000000000E+009;1.552029550075531E-001;-1.159910038113594E-001;1.539583317935467E-003;7.260939455591142E-004;
2.425666666666667E+009;1.553630381822586E-001;-1.166400462388992E-001;1.522655948065221E-003;7.744791219010949E-004;
2.425833333333334E+009;1.555759906768799E-001;-1.171559393405914E-001;1.518202247098088E-003;7.747439667582512E-004;
2.426000000000000E+009;1.557879298925400E-001;-1.176300272345543E-001;1.633654348552227E-003;7.305760518647730E-004;
2.426166666666667E+009;1.561692506074905E-001;-1.180986091494560E-001;1.727126887999475E-003;8.215949055738747E-004;
2.426333333333334E+009;1.561032533645630E-001;-1.184513345360756E-001;1.762058818712831E-003;7.164558046497405E-004;
2.426500000000000E+009;1.561500281095505E-001;-1.186290904879570E-001;1.872286549769342E-003;6.431055953726172E-004;
2.426666666666667E+009;1.563083976507187E-001;-1.186822131276131E-001;1.751572126522660E-003;6.834541563875973E-004;
2.426833333333334E+009;1.559782475233078E-001;-1.190116181969643E-001;2.020006999373436E-003;5.110792117193341E-004;
2.427000000000000E+009;1.556702703237534E-001;-1.192916855216026E-001;2.026774454861879E-003;5.475791404023767E-004;
2.427166666666667E+009;1.553935110569000E-001;-1.191765889525414E-001;2.173907123506069E-003;4.491270810831338E-004;
2.427333333333334E+009;1.549430340528488E-001;-1.193868145346642E-001;2.168372739106417E-003;3.170983109157533E-004;
2.427500000000000E+009;1.544951498508453E-001;-1.193954050540924E-001;2.380892634391785E-003;2.971008361782879E-004;
2.427666666666667E+009;1.538823843002319E-001;-1.196128129959106E-001;2.243891591206193E-003;2.295885788043961E-004;
2.427833333333334E+009;1.531163752079010E-001;-1.196795329451561E-001;2.417177194729447E-003;3.037483256775886E-004;
