# Version 1.00
#
freq[Hz];re:Trc1_S11;im:Trc1_S11;re:Trc2_S21;im:Trc2_S21;
2.400000000000000E+009;1.561204791069031E-001;6.175988540053368E-002;3.930678591132164E-003;-1.142711262218654E-003;
2.400166666666667E+009;1.560902595520020E-001;5.985732004046440E-002;3.865680424496532E-003;-1.241605030372739E-003;
2.400333333333334E+009;1.560311764478684E-001;5.792833492159843E-002;3.801933256909251E-003;-1.548701082356274E-003;
2.400500000000000E+009;1.560162603855133E-001;5.597329512238503E-002;3.696860745549202E-003;-1.474534394219518E-003;
2.400666666666667E+009;1.560899168252945E-001;5.373626947402954E-002;3.723876317963004E-003;-1.763609005138278E-003;
2.400833333333334E+009;1.564136743545532E-001;5.160302668809891E-002;3.557372605428100E-003;-1.919524394907057E-003;
2.401000000000000E+009;1.563999801874161E-001;4.948801174759865E-002;3.717621555551887E-003;-1.920576207339764E-003;
2.401166666666667E+009;1.567088067531586E-001;4.739217460155487E-002;3.543690079823136E-003;-2.057213336229324E-003;
2.401333333333334E+009;1.569515466690064E-001;4.522648826241493E-002;3.572944551706314E-003;-2.222391078248620E-003;
2.401500000000000E+009;1.576721668243408E-001;4.320510849356651E-002;3.451440948992968E-003;-2.416944364085794E-003;
2.401666666666667E+009;1.580849587917328E-001;4.111434891819954E-002;3.358789486810565E-003;-2.524081850424409E-003;
2.401833333333334E+009;1.585286557674408E-001;3.901623561978340E-002;3.175133140757680E-003;-2.821390284225345E-003;
2.402000000000000E+009;1.590103507041931E-001;3.706613555550575E-002;3.087776014581323E-003;-2.827803371474147E-003;
2.402166666666667E+009;1.598384827375412E-001;3.501852601766586E-002;2.843682421371341E-003;-2.916759578511119E-003;
2.402333333333334E+009;1.604129374027252E-001;3.316418454051018E-002;2.961032325401902E-003;-2.908525289967656E-003;
2.402500000000000E+009;1.614877581596375E-001;3.141211345791817E-002;2.872288459911943E-003;-3.131374251097441E-003;
2.402666666666667E+009;1.622851639986038E-001;2.976795099675655E-002;2.623706823214889E-003;-3.004891797900200E-003;
2.402833333333334E+009;1.631823182106018E-001;2.803827635943890E-002;2.396662952378392E-003;-3.352945437654853E-003;
2.403000000000000E+009;1.643203347921372E-001;2.650139853358269E-002;2.407036256045103E-003;-3.356312634423375E-003;
2.403166666666667E+009;1.652992069721222E-001;2.497462742030621E-002;2.329280134290457E-003;-3.388626035302877E-003;
2.403333333333334E+009;1.661342531442642E-001;2.373814396560192E-002;1.949872239492834E-003;-3.467795904725790E-003;
2.403500000000000E+009;1.672457605600357E-001;2.237792871892452E-002;1.816973555833101E-003;-3.475032746791840E-003;
2.403666666666667E+009;1.683528423309326E-001;2.121463976800442E-002;1.832418376579881E-003;-3.543354803696275E-003;
2.403833333333334E+009;1.695057153701782E-001;1.994479633867741E-002;1.649270532652736E-003;-3.572250017896295E-003;
2.404000000000000E+009;1.704624295234680E-001;1.900461874902248E-002;1.436620485037565E-003;-3.601306583732367E-003;
2.404166666666667E+009;1.715779453516007E-001;1.786555349826813E-002;1.435848651453853E-003;-3.767813788726926E-003;
2.404333333333334E+009;1.724208742380142E-001;1.712801307439804E-002;1.103279879316688E-003;-3.579372307285667E-003;
2.404500000000000E+009;1.734699606895447E-001;1.620387099683285E-002;1.029013656079769E-003;-3.669174388051033E-003;
2.404666666666667E+009;1.745115518569946E-001;1.559742540121079E-002;9.781244443729520E-004;-3.652191953733563E-003;
2.404833333333334E+009;1.753279566764832E-001;1.492511201649904E-002;7.052736473269761E-004;-3.568195272237063E-003;
2.405000000000000E+009;1.763245165348053E-001;1.445718295872212E-002;5.949884071014822E-004;-3.602644661441445E-003;
2.405166666666667E+009;1.770517081022263E-001;1.391567848622799E-002;4.576693463604897E-004;-3.509545000270009E-003;
2.405333333333334E+009;1.779235899448395E-001;1.337695959955454E-002;2.801314694806933E-004;-3.579737618565559E-003;
2.405500000000000E+009;1.785764247179031E-001;1.315419189631939E-002;1.656547683523968E-004;-3.608975093811750E-003;
2.405666666666667E+009;1.790753751993179E-001;1.287351176142693E-002;1.872611319413409E-004;-3.566098399460316E-003;
2.405833333333334E+009;1.795575469732285E-001;1.269519608467817E-002;-2.007954935834277E-005;-3.378512104973197E-003;
2.406000000000000E+009;1.801957041025162E-001;1.220932509750128E-002;-7.592620386276394E-005;-3.450786229223013E-003;
2.406166666666667E+009;1.803485006093979E-001;1.230660825967789E-002;-2.435298229102045E-004;-3.331205574795604E-003;
2.406333333333334E+009;1.809104532003403E-001;1.189815532416105E-002;-3.500218736007810E-004;-3.086012322455645E-003;
2.406500000000000E+009;1.810407638549805E-001;1.175429113209248E-002;-4.994756309315562E-004;-2.947282977402210E-003;
2.406666666666667E+009;1.809584647417069E-001;1.157936640083790E-002;-4.956110497005284E-004;-3.018938936293125E-003;
2.406833333333334E+009;1.811001300811768E-001;1.124750357121229E-002;-5.479643587023020E-004;-2.901221858337522E-003;
2.407000000000000E+009;1.810516417026520E-001;1.097945868968964E-002;-6.876713596284390E-004;-2.848878968507052E-003;
2.407166666666667E+009;1.809529066085815E-001;1.077638007700443E-002;-5.574507522396743E-004;-2.753443783149123E-003;
2.407333333333334E+009;1.805927902460098E-001;1.026251073926687E-002;-6.961557664908469E-004;-2.686761086806655E-003;
2.407500000000000E+009;1.803840100765228E-001;9.923689998686314E-003;-5.493001663126051E-004;-2.730267820879817E-003;
2.407666666666667E+009;1.800150424242020E-001;9.497512131929398E-003;-8.419230580329895E-004;-2.546371193602681E-003;
2.407833333333334E+009;1.793087571859360E-001;8.851645514369011E-003;-6.378209800459445E-004;-2.423959551379085E-003;
2.408000000000000E+009;1.788823008537293E-001;8.262498304247856E-003;-8.603433961980045E-004;-2.564361551776528E-003;
2.408166666666667E+009;1.783965080976486E-001;7.594995200634003E-003;-8.002482936717570E-004;-2.531609963625670E-003;
2.408333333333334E+009;1.779813021421433E-001;6.883942987769842E-003;-6.412870134226978E-004;-2.300604246556759E-003;
2.408500000000000E+009;1.771364063024521E-001;5.885682534426451E-003;-7.726752082817257E-004;-2.415217924863100E-003;
2.408666666666667E+009;1.764157563447952E-001;4.785959143191576E-003;-9.127418743446469E-004;-2.296395134180784E-003;
2.408833333333334E+009;1.755407154560089E-001;3.715598024427891E-003;-6.873043021187186E-004;-2.238035667687655E-003;
2.409000000000000E+009;1.748220175504684E-001;2.589013893157244E-003;-7.422365015372634E-004;-2.171896165236831E-003;
2.409166666666667E+009;1.741321384906769E-001;1.416652929037809E-003;-6.985201034694910E-004;-2.200348768383265E-003;
2.409333333333334E+009;1.734718382358551E-001;-1.448658258595970E-005;-7.054909365251660E-004;-2.301075961440802E-003;
2.409500000000000E+009;1.725131869316101E-001;-1.604561111889780E-003;-8.078838000074029E-004;-2.202492672950029E-003;
2.409666666666667E+009;1.716992706060410E-001;-3.134399885311723E-003;-7.283656159415841E-004;-2.383115934208036E-003;
2.409833333333334E+009;1.710291951894760E-001;-4.544279072433710E-003;-8.486519800499082E-004;-2.261775312945247E-003;
2.410000000000000E+009;1.704346388578415E-001;-6.213409360498190E-003;-8.852833998389542E-004;-2.162468153983355E-003;
2.410166666666667E+009;1.696437150239945E-001;-8.136993274092674E-003;-8.262376650236547E-004;-2.341554267331958E-003;
2.410333333333334E+009;1.690248250961304E-001;-9.752590209245682E-003;-1.053379848599434E-003;-2.244907896965742E-003;
2.410500000000000E+009;1.685449630022049E-001;-1.166500244289637E-002;-1.024816418066621E-003;-2.311529824510217E-003;
2.410666666666667E+009;1.681362241506577E-001;-1.379791554063559E-002;-1.126345247030258E-003;-2.300898777320981E-003;
2.410833333333334E+009;1.679069399833679E-001;-1.557913795113564E-002;-1.069113030098379E-003;-2.132215769961476E-003;
2.411000000000000E+009;1.674932092428207E-001;-1.740693859755993E-002;-1.075559412129223E-003;-2.404620172455907E-003;
2.411166666666667E+009;1.671181768178940E-001;-1.964133046567440E-002;-1.286661718040705E-003;-2.229785313829780E-003;
2.411333333333334E+009;1.669485569000244E-001;-2.171880193054676E-002;-1.384095870889723E-003;-2.144715748727322E-003;
2.411500000000000E+009;1.667600423097611E-001;-2.382161468267441E-002;-1.372391241602600E-003;-2.181741874665022E-003;
2.411666666666667E+009;1.669313162565231E-001;-2.584421820938587E-002;-1.484696986153722E-003;-2.086153952404857E-003;
2.411833333333334E+009;1.667931973934174E-001;-2.781225740909576E-002;-1.488691079430282E-003;-2.142579760402441E-003;
2.412000000000000E+009;1.672732084989548E-001;-2.968066744506359E-002;-1.597602502442896E-003;-2.087371656671166E-003;
2.412166666666667E+009;1.673522293567658E-001;-3.174612671136856E-002;-1.660229288972914E-003;-2.116437070071697E-003;
2.412333333333334E+009;1.677697598934174E-001;-3.365576267242432E-002;-1.579280709847808E-003;-1.993354409933090E-003;
2.412500000000000E+009;1.680402159690857E-001;-3.554127365350723E-002;-1.614476321265101E-003;-1.829403452575207E-003;
2.412666666666667E+009;1.685846745967865E-001;-3.758285567164421E-002;-1.809124252758920E-003;-1.797736156731844E-003;
2.412833333333334E+009;1.690495759248734E-001;-3.949532285332680E-002;-1.853069523349404E-003;-1.763990032486618E-003;
2.413000000000000E+009;1.696121543645859E-001;-4.111082479357719E-002;-1.808974775485694E-003;-1.574191148392856E-003;
2.413166666666667E+009;1.701489388942719E-001;-4.299866780638695E-002;-1.877413014881313E-003;-1.789658213965595E-003;
2.413333333333334E+009;1.706762313842773E-001;-4.464917629957199E-002;-2.038979902863503E-003;-1.610076753422618E-003;
2.413500000000000E+009;1.712677031755447E-001;-4.624019935727119E-002;-1.961089670658112E-003;-1.482047373428941E-003;
2.413666666666667E+009;1.720240563154221E-001;-4.767691344022751E-002;-1.937513472512364E-003;-1.376589760184288E-003;
2.413833333333334E+009;1.727145761251450E-001;-4.904693737626076E-002;-2.084945095703006E-003;-1.366984331980348E-003;
2.414000000000000E+009;1.732464283704758E-001;-5.041862279176712E-002;-1.978857442736626E-003;-1.385920564644039E-003;
2.414166666666667E+009;1.740650236606598E-001;-5.157046392560005E-002;-2.161550102755427E-003;-1.306881662458181E-003;
2.414333333333334E+009;1.746842563152313E-001;-5.270512029528618E-002;-2.057602163404226E-003;-1.191054470837116E-003;
2.414500000000000E+009;1.754311472177506E-001;-5.371212959289551E-002;-1.979674445465207E-003;-9.858477860689163E-004;
2.414666666666667E+009;1.758818477392197E-001;-5.442189052700996E-002;-2.170887542888522E-003;-1.112826284952462E-003;
2.414833333333334E+009;1.763356626033783E-001;-5.537709593772888E-002;-2.104399260133505E-003;-1.043219352141023E-003;
2.415000000000000E+009;1.768620014190674E-001;-5.611389130353928E-002;-2.193857450038195E-003;-1.051160506904125E-003;
2.415166666666667E+009;1.772435903549194E-001;-5.684509500861168E-002;-2.155343536287546E-003;-9.804184082895517E-004;
2.415333333333334E+009;1.777532845735550E-001;-5.742630735039711E-002;-2.077590674161911E-003;-8.990474161691964E-004;
2.415500000000000E+009;1.780485510826111E-001;-5.779337882995606E-002;-2.155709080398083E-003;-8.517695241607726E-004;
2.415666666666667E+009;1.782883405685425E-001;-5.818762630224228E-002;-2.047640737146139E-003;-8.086331072263420E-004;
2.415833333333334E+009;1.785134673118591E-001;-5.849995836615562E-002;-2.106819767504931E-003;-6.759982206858695E-004;
2.416000000000000E+009;1.785158216953278E-001;-5.877223983407021E-002;-2.237534383311868E-003;-8.773828740231693E-004;
2.416166666666667E+009;1.786499470472336E-001;-5.904515460133553E-002;-2.147107850760222E-003;-7.282518781721592E-004;
2.416333333333334E+009;1.785586923360825E-001;-5.906675383448601E-002;-1.980022760108113E-003;-6.117628654465079E-004;
2.416500000000000E+009;1.783681958913803E-001;-5.934862792491913E-002;-2.089500194415450E-003;-6.093434640206397E-004;
2.416666666666667E+009;1.780966371297836E-001;-5.943695083260536E-002;-2.113045193254948E-003;-6.364857545122504E-004;
2.416833333333334E+009;1.779076606035233E-001;-5.969637632369995E-002;-2.069789450615645E-003;-5.407512653619051E-004;
2.417000000000000E+009;1.772149503231049E-001;-5.977753549814224E-002;-2.152968663722277E-003;-5.620977608487010E-004;
2.417166666666667E+009;1.767241954803467E-001;-5.983069539070129E-002;-2.146559301763773E-003;-3.107374650426209E-004;
2.417333333333334E+009;1.760895848274231E-001;-5.987371504306793E-002;-2.003337722271681E-003;-3.795904631260783E-004;
2.417500000000000E+009;1.752697080373764E-001;-6.022903323173523E-002;-2.073790878057480E-003;-3.637465997599065E-004;
2.417666666666667E+009;1.745908409357071E-001;-6.018249318003655E-002;-2.085307380184531E-003;-4.458999610505998E-004;
2.417833333333334E+009;1.735416799783707E-001;-6.047150492668152E-002;-2.029218943789601E-003;-3.383085713721812E-004;
2.418000000000000E+009;1.726429909467697E-001;-6.084377318620682E-002;-2.112847287207842E-003;-2.013952762354165E-004;
2.418166666666667E+009;1.714113205671310E-001;-6.098241731524468E-002;-2.223151735961437E-003;-2.969000488519669E-004;
2.418333333333334E+009;1.706093549728394E-001;-6.149259582161903E-002;-2.035023877397180E-003;-2.090282214339823E-004;
2.418500000000000E+009;1.692989766597748E-001;-6.179644539952278E-002;-1.971408957615495E-003;3.067246507271193E-005;
2.418666666666667E+009;1.681415587663651E-001;-6.239626929163933E-002;-1.985405338928103E-003;-2.722931276366580E-005;
2.418833333333334E+009;1.667033880949020E-001;-6.297331303358078E-002;-2.005073474720120E-003;-2.368186687817797E-004;
2.419000000000000E+009;1.654555350542069E-001;-6.356749683618546E-002;-2.042870037257671E-003;-3.275976996519603E-005;
2.419166666666667E+009;1.641306132078171E-001;-6.440321356058121E-002;-1.786011969670653E-003;-8.042827539611608E-005;
2.419333333333334E+009;1.627854108810425E-001;-6.503511220216751E-002;-2.100680256262422E-003;1.922848605317995E-005;
2.419500000000000E+009;1.615171283483505E-001;-6.618237495422363E-002;-1.968734664842486E-003;-4.910100687993690E-005;
2.419666666666667E+009;1.604265570640564E-001;-6.715308874845505E-002;-2.107528503984213E-003;-7.784613990224898E-005;
2.419833333333334E+009;1.590305119752884E-001;-6.815443187952042E-002;-1.980979461222887E-003;-3.977925371145830E-005;
2.420000000000000E+009;1.579748094081879E-001;-6.938177347183228E-002;-2.015645615756512E-003;5.103063813294284E-006;
2.420166666666667E+009;1.567042618989945E-001;-7.055505365133286E-002;-2.043934771791101E-003;-7.790394738549367E-005;
2.420333333333334E+009;1.555785089731216E-001;-7.197569310665131E-002;-1.919468515552580E-003;1.209257461596280E-004;
2.420500000000000E+009;1.546545028686523E-001;-7.316001504659653E-002;-1.956990454345942E-003;5.033824345446192E-005;
2.420666666666667E+009;1.534998565912247E-001;-7.467874139547348E-002;-1.896397210657597E-003;-8.016407809918746E-005;
2.420833333333334E+009;1.526692807674408E-001;-7.625758647918701E-002;-2.018749946728349E-003;3.011883927683812E-005;
2.421000000000000E+009;1.518981903791428E-001;-7.781560719013214E-002;-2.115931129083037E-003;-2.649858470249455E-005;
2.421166666666667E+009;1.510699540376663E-001;-7.938294857740402E-002;-2.060709521174431E-003;1.886668360384647E-005;
2.421333333333334E+009;1.506701111793518E-001;-8.111351728439331E-002;-2.148699015378952E-003;1.957864587893710E-004;
2.421500000000000E+009;1.499241292476654E-001;-8.288449794054031E-002;-2.163298893719912E-003;1.166872825706378E-004;
2.421666666666667E+009;1.494959145784378E-001;-8.459589630365372E-002;-2.125615486875176E-003;4.694692324846983E-005;
2.421833333333334E+009;1.491723954677582E-001;-8.636365085840225E-002;-2.129822038114071E-003;1.579289964865893E-004;
2.422000000000000E+009;1.487510800361633E-001;-8.801808953285217E-002;-2.240466419607401E-003;2.364937245147303E-004;
2.422166666666667E+009;1.487738341093063E-001;-9.011647105216980E-002;-2.428792882710695E-003;2.856878272723407E-004;
2.422333333333334E+009;1.486721783876419E-001;-9.170588850975037E-002;-2.327772555872798E-003;3.308872692286968E-004;
2.422500000000000E+009;1.486197263002396E-001;-9.332287311553955E-002;-2.348139882087708E-003;2.698916359804571E-004;
2.422666666666667E+009;1.485310345888138E-001;-9.515769034624100E-002;-2.364289714023471E-003;5.356241017580032E-004;
2.422833333333334E+009;1.487645953893662E-001;-9.701813757419586E-002;-2.451155334711075E-003;7.168192532844842E-004;
2.423000000000000E+009;1.490342468023300E-001;-9.876904636621475E-002;-2.478091046214104E-003;6.241974188014865E-004;
2.423166666666667E+009;1.494442075490952E-001;-1.002010181546211E-001;-2.482859883457422E-003;6.405662279576063E-004;
2.423333333333334E+009;1.499323248863220E-001;-1.016835719347000E-001;-2.310837619006634E-003;8.549732738174498E-004;
2.423500000000000E+009;1.501813977956772E-001;-1.032965853810310E-001;-2.443481935188174E-003;8.320850902236998E-004;
2.423666666666667E+009;1.506666541099548E-001;-1.049826741218567E-001;-2.347003202885389E-003;8.736625313758850E-004;
2.423833333333334E+009;1.514273881912231E-001;-1.063328087329865E-001;-2.392992610111833E-003;1.041557523421943E-003;
2.424000000000000E+009;1.518079787492752E-001;-1.075043752789497E-001;-2.374456962570548E-003;1.175784273073077E-003;
2.424166666666667E+009;1.523821204900742E-001;-1.088756844401360E-001;-2.391800982877612E-003;1.073972904123366E-003;
2.424333333333334E+009;1.530065685510635E-001;-1.099141910672188E-001;-2.366002183407545E-003;1.409004209563136E-003;
2.424500000000000E+009;1.535793840885162E-001;-1.112023070454598E-001;-2.400668105110526E-003;1.365898642688990E-003;
2.424666666666667E+009;1.542134881019592E-001;-1.119323372840881E-001;-2.277415012940764E-003;1.526787062175572E-003;
2.424833333333334E+009;1.545639038085938E-001;-1.130635738372803E-001;-2.353019779548049E-003;1.548128901049495E-003;
2.425000000000000E+009;1.552030444145203E-001;-1.137966364622116E-001;-2.103555016219616E-003;1.648312434554100E-003;
2.425166666666667E+009;1.554858088493347E-001;-1.145411804318428E-001;-2.127161948010325E-003;1.585925114341080E-003;
2.425333333333334E+009;1.560852080583572E-001;-1.153001040220261E-001;-2.200552960857749E-003;1.729001640342176E-003;
2.425500000000000E+009;1.565107107162476E-001;-1.158827245235443E-001;-2.018662402406335E-003;1.746034366078675E-003;
2.425666666666667E+009;1.567300707101822E-001;-1.162818819284439E-001;-1.979914726689458E-003;1.883253455162048E-003;
2.425833333333334E+009;1.569426208734512E-001;-1.167450174689293E-001;-2.000619890168309E-003;1.920442562550306E-003;
2.426000000000000E+009;1.571484506130219E-001;-1.172353476285934E-001;-1.810193061828613E-003;1.971713500097394E-003;
2.426166666666667E+009;1.572790592908859E-001;-1.174886003136635E-001;-1.825998187996447E-003;2.067477675154805E-003;
2.426333333333334E+009;1.572939902544022E-001;-1.176951676607132E-001;-1.882955431938171E-003;2.235368127003312E-003;
2.426500000000000E+009;1.572552174329758E-001;-1.179279834032059E-001;-1.723071793094277E-003;2.123741433024406E-003;
2.426666666666667E+009;1.572224497795105E-001;-1.179037243127823E-001;-1.677692285738885E-003;2.051392802968621E-003;
2.426833333333334E+009;1.568640321493149E-001;-1.180868521332741E-001;-1.642106915824115E-003;2.218633890151978E-003;
2.427000000000000E+009;1.564883738756180E-001;-1.181653141975403E-001;-1.653825747780502E-003;2.255056519061327E-003;
2.427166666666667E+009;1.560430079698563E-001;-1.180663630366325E-001;-1.587545964866877E-003;2.377807162702084E-003;
2.427333333333334E+009;1.554256975650787E-001;-1.181132867932320E-001;-1.472622505389154E-003;2.541169757023454E-003;
2.427500000000000E+009;1.549280732870102E-001;-1.181224361062050E-001;-1.404208131134510E-003;2.384298713877797E-003;
2.427666666666667E+009;1.539577841758728E-001;-1.182198747992516E-001;-1.443322631530464E-003;2.383343642577529E-003;
