# Version 1.00
#
freq[Hz];re:Trc1_S11;im:Trc1_S11;re:Trc2_S21;im:Trc2_S21;
2.400000000000000E+009;1.681408137083054E-001;4.675088822841644E-002;-2.444932935759425E-003;-3.164474386721849E-003;
2.400166666666667E+009;1.693343222141266E-001;4.574278742074966E-002;-2.579226158559322E-003;-3.151882207021117E-003;
2.400333333333334E+009;1.699313968420029E-001;4.439118877053261E-002;-2.753906417638063E-003;-3.087105229496956E-003;
2.400500000000000E+009;1.709332466125488E-001;4.349318891763687E-002;-2.777450717985630E-003;-3.172659082338214E-003;
2.400666666666667E+009;1.716493815183640E-001;4.248654842376709E-002;-2.988911001011729E-003;-2.997601637616754E-003;
2.400833333333334E+009;1.725791841745377E-001;4.166875779628754E-002;-3.115633968263865E-003;-2.964560873806477E-003;
2.401000000000000E+009;1.733562350273132E-001;4.081242159008980E-002;-3.312831278890371E-003;-2.821810543537140E-003;
2.401166666666667E+009;1.742430329322815E-001;3.988278284668922E-002;-3.446568269282579E-003;-2.895340323448181E-003;
2.401333333333334E+009;1.747207790613174E-001;3.912932425737381E-002;-3.563338890671730E-003;-2.677931915968657E-003;
2.401500000000000E+009;1.755656301975250E-001;3.851839527487755E-002;-3.902806667611003E-003;-2.487893681973219E-003;
2.401666666666667E+009;1.760996580123901E-001;3.782027214765549E-002;-3.979248460382223E-003;-2.329461975023150E-003;
2.401833333333334E+009;1.766572296619415E-001;3.707082942128182E-002;-4.152553156018257E-003;-2.232977887615562E-003;
2.402000000000000E+009;1.771083474159241E-001;3.676376491785049E-002;-4.274107050150633E-003;-1.993855694308877E-003;
2.402166666666667E+009;1.773549020290375E-001;3.559736907482147E-002;-4.431579262018204E-003;-1.931855571456254E-003;
2.402333333333334E+009;1.778748780488968E-001;3.512733802199364E-002;-4.577962215989828E-003;-1.663985080085695E-003;
2.402500000000000E+009;1.785186827182770E-001;3.439876064658165E-002;-4.569814540445805E-003;-1.626827870495617E-003;
2.402666666666667E+009;1.785178482532501E-001;3.383432328701019E-002;-4.720368422567844E-003;-1.301209325902164E-003;
2.402833333333334E+009;1.787237524986267E-001;3.301089257001877E-002;-4.693632479757071E-003;-1.031226711347699E-003;
2.403000000000000E+009;1.787786483764648E-001;3.226840123534203E-002;-4.685696214437485E-003;-8.557609398849309E-004;
2.403166666666667E+009;1.789490729570389E-001;3.140167146921158E-002;-4.770603030920029E-003;-7.319860160350800E-004;
2.403333333333334E+009;1.789045333862305E-001;3.041374310851097E-002;-4.820026922971010E-003;-5.022860132157803E-004;
2.403500000000000E+009;1.787513345479965E-001;2.961771748960018E-002;-4.903726279735565E-003;-3.338921524118632E-004;
2.403666666666667E+009;1.785887628793716E-001;2.845895849168301E-002;-5.075672641396523E-003;-1.426090748282149E-004;
2.403833333333334E+009;1.784655153751373E-001;2.749095484614372E-002;-4.938206635415554E-003;7.433955033775419E-005;
2.404000000000000E+009;1.780351102352142E-001;2.657466940581799E-002;-5.006386898458004E-003;3.920175367966294E-004;
2.404166666666667E+009;1.777373552322388E-001;2.520868927240372E-002;-4.901126492768526E-003;3.333553613629192E-004;
2.404333333333334E+009;1.774247884750366E-001;2.409611456096172E-002;-4.902085755020380E-003;7.441065972670913E-004;
2.404500000000000E+009;1.769353598356247E-001;2.274532057344914E-002;-5.053536035120487E-003;1.054903841577470E-003;
2.404666666666667E+009;1.763668209314346E-001;2.151417359709740E-002;-4.898119717836380E-003;1.402920577675104E-003;
2.404833333333334E+009;1.761429905891419E-001;2.023552544414997E-002;-4.931650590151548E-003;1.359319081529975E-003;
2.405000000000000E+009;1.756840199232101E-001;1.865707337856293E-002;-4.684349987655878E-003;1.836720970459282E-003;
2.405166666666667E+009;1.753364950418472E-001;1.706425286829472E-002;-4.630642011761665E-003;1.983724068850279E-003;
2.405333333333334E+009;1.748909354209900E-001;1.541681215167046E-002;-4.352366551756859E-003;2.147902036085725E-003;
2.405500000000000E+009;1.746058017015457E-001;1.394522562623024E-002;-4.533556755632162E-003;2.324518747627735E-003;
2.405666666666667E+009;1.741616576910019E-001;1.240636501461268E-002;-4.145630635321140E-003;2.634980017319322E-003;
2.405833333333334E+009;1.738737523555756E-001;1.059138681739569E-002;-4.240164067596197E-003;2.760465256869793E-003;
2.406000000000000E+009;1.736185550689697E-001;8.656042627990246E-003;-3.905683988705277E-003;2.836312633007765E-003;
2.406166666666667E+009;1.732403039932251E-001;7.029592059552670E-003;-3.840493736788631E-003;3.036810783669353E-003;
2.406333333333334E+009;1.732480078935623E-001;5.084909033030272E-003;-3.597474191337824E-003;3.200052073225379E-003;
2.406500000000000E+009;1.731118708848953E-001;3.102742135524750E-003;-3.480341983959079E-003;3.427502466365695E-003;
2.406666666666667E+009;1.728582680225372E-001;1.239331439137459E-003;-3.387818112969399E-003;3.553131129592657E-003;
2.406833333333334E+009;1.730021983385086E-001;-7.510564755648375E-004;-3.061877330765128E-003;3.418566659092903E-003;
2.407000000000000E+009;1.729909032583237E-001;-2.800149144604802E-003;-2.836039988324046E-003;3.487755078822374E-003;
2.407166666666667E+009;1.731424033641815E-001;-4.720894619822502E-003;-2.931362949311733E-003;3.676955588161945E-003;
2.407333333333334E+009;1.732476204633713E-001;-6.872093770653009E-003;-2.551625715568662E-003;3.836212679743767E-003;
2.407500000000000E+009;1.735280752182007E-001;-8.845698088407517E-003;-2.340590581297875E-003;3.774634562432766E-003;
2.407666666666667E+009;1.738243699073792E-001;-1.078554242849350E-002;-2.146754413843155E-003;3.843061393126845E-003;
2.407833333333334E+009;1.738815456628799E-001;-1.286236662417650E-002;-2.028536517173052E-003;3.856714349240065E-003;
2.408000000000000E+009;1.743729114532471E-001;-1.502405479550362E-002;-1.804729807190597E-003;3.806610126048327E-003;
2.408166666666667E+009;1.745632737874985E-001;-1.678241416811943E-002;-1.771292183548212E-003;3.688032506033778E-003;
2.408333333333334E+009;1.752768009901047E-001;-1.887322030961514E-002;-1.449501491151750E-003;3.830453846603632E-003;
2.408500000000000E+009;1.756014078855515E-001;-2.084061689674854E-002;-1.330359373241663E-003;3.589557483792305E-003;
2.408666666666667E+009;1.757161617279053E-001;-2.258234657347202E-002;-1.353327883407474E-003;3.682098817080259E-003;
2.408833333333334E+009;1.760066300630570E-001;-2.432141639292240E-002;-1.173206139355898E-003;3.691112156957388E-003;
2.409000000000000E+009;1.763405501842499E-001;-2.588221803307533E-002;-1.263009267859161E-003;3.632780630141497E-003;
2.409166666666667E+009;1.768141835927963E-001;-2.731586433947086E-002;-1.024954719468951E-003;3.664277028292418E-003;
2.409333333333334E+009;1.773199141025543E-001;-2.886364981532097E-002;-9.299972443841398E-004;3.598837880417705E-003;
2.409500000000000E+009;1.776192337274551E-001;-3.023749403655529E-002;-8.635267149657011E-004;3.636327339336276E-003;
2.409666666666667E+009;1.780113428831101E-001;-3.140374273061752E-002;-7.652277126908302E-004;3.652731422334909E-003;
2.409833333333334E+009;1.784967333078384E-001;-3.244869410991669E-002;-6.451593944802880E-004;3.698572982102633E-003;
2.410000000000000E+009;1.789082586765289E-001;-3.341559320688248E-002;-5.075188237242401E-004;3.605168545618653E-003;
2.410166666666667E+009;1.794379800558090E-001;-3.446824476122856E-002;-4.254009108990431E-004;3.463878994807601E-003;
2.410333333333334E+009;1.796837300062180E-001;-3.521572053432465E-002;-6.627624970860779E-004;3.590164240449667E-003;
2.410500000000000E+009;1.801832169294357E-001;-3.601315617561340E-002;-2.260254113934934E-004;3.764722496271133E-003;
2.410666666666667E+009;1.803219914436340E-001;-3.691629320383072E-002;-8.518066897522658E-005;3.416956868022680E-003;
2.410833333333334E+009;1.809050887823105E-001;-3.728605434298515E-002;-1.707659102976322E-004;3.520565573126078E-003;
2.411000000000000E+009;1.809543073177338E-001;-3.797671198844910E-002;-1.421470806235448E-004;3.486466128379107E-003;
2.411166666666667E+009;1.812606155872345E-001;-3.863264620304108E-002;1.011334461509250E-004;3.518630983307958E-003;
2.411333333333334E+009;1.812786310911179E-001;-3.888916969299316E-002;3.109702447545715E-005;3.565225517377257E-003;
2.411500000000000E+009;1.813730746507645E-001;-3.974237293004990E-002;1.851587585406378E-004;3.599834162741900E-003;
2.411666666666667E+009;1.815570890903473E-001;-4.004931449890137E-002;2.688947424758226E-004;3.501576604321599E-003;
2.411833333333334E+009;1.815104186534882E-001;-4.048389941453934E-002;3.358261310495436E-004;3.662230679765344E-003;
2.412000000000000E+009;1.812898814678192E-001;-4.101046547293663E-002;4.342449246905744E-004;3.447836032137275E-003;
2.412166666666667E+009;1.809824258089066E-001;-4.140137135982513E-002;5.066869198344648E-004;3.370747901499271E-003;
2.412333333333334E+009;1.807762384414673E-001;-4.148264974355698E-002;6.819305126555264E-004;3.654211992397904E-003;
2.412500000000000E+009;1.801917403936386E-001;-4.203483834862709E-002;7.043559453450143E-004;3.765289671719074E-003;
2.412666666666667E+009;1.797751039266586E-001;-4.265686497092247E-002;8.316413732245565E-004;3.639127127826214E-003;
2.412833333333334E+009;1.792999505996704E-001;-4.287701100111008E-002;1.019028713926673E-003;3.625919809564948E-003;
2.413000000000000E+009;1.782818436622620E-001;-4.334038496017456E-002;9.889851789921522E-004;3.602987620979548E-003;
2.413166666666667E+009;1.774750947952271E-001;-4.383563622832298E-002;1.144126290455461E-003;3.615700174123049E-003;
2.413333333333334E+009;1.767008155584335E-001;-4.418243095278740E-002;1.280477037653327E-003;3.524364670738578E-003;
2.413500000000000E+009;1.758549958467484E-001;-4.484669491648674E-002;1.287863240577281E-003;3.582970006391406E-003;
2.413666666666667E+009;1.749732047319412E-001;-4.546765610575676E-002;1.456167665310204E-003;3.489462658762932E-003;
2.413833333333334E+009;1.737945824861527E-001;-4.601453244686127E-002;1.434732461348176E-003;3.583536250516772E-003;
2.414000000000000E+009;1.724714636802673E-001;-4.683792963624001E-002;1.619490794837475E-003;3.583700396120548E-003;
2.414166666666667E+009;1.716872900724411E-001;-4.750305786728859E-002;1.757620950229466E-003;3.551456145942211E-003;
2.414333333333334E+009;1.705156117677689E-001;-4.837357252836227E-002;1.761669409461319E-003;3.427742747589946E-003;
2.414500000000000E+009;1.695064902305603E-001;-4.921237751841545E-002;2.006587106734514E-003;3.378163324669004E-003;
2.414666666666667E+009;1.683429628610611E-001;-5.014695227146149E-002;2.143120160326362E-003;3.375098109245300E-003;
2.414833333333334E+009;1.670325696468353E-001;-5.126110091805458E-002;2.203639363870025E-003;3.279033582657576E-003;
2.415000000000000E+009;1.658235043287277E-001;-5.241502076387405E-002;2.444847486913204E-003;3.266808809712529E-003;
2.415166666666667E+009;1.646222323179245E-001;-5.354792997241020E-002;2.457934431731701E-003;3.276464529335499E-003;
2.415333333333334E+009;1.637676358222961E-001;-5.496961995959282E-002;2.521875081583858E-003;3.091806313022971E-003;
2.415500000000000E+009;1.626133620738983E-001;-5.633838847279549E-002;2.753553679212928E-003;3.115414641797543E-003;
2.415666666666667E+009;1.613519191741943E-001;-5.786816403269768E-002;2.847035182639957E-003;2.981339115649462E-003;
2.415833333333334E+009;1.604552567005158E-001;-5.946002900600433E-002;3.120593726634979E-003;2.958757337182760E-003;
2.416000000000000E+009;1.591053456068039E-001;-6.113495305180550E-002;3.137457882985473E-003;2.869984833523631E-003;
2.416166666666667E+009;1.585062742233276E-001;-6.288493424654007E-002;3.224705345928669E-003;2.633152063935995E-003;
2.416333333333334E+009;1.574888378381729E-001;-6.448514759540558E-002;3.402902511879802E-003;2.629369264468551E-003;
2.416500000000000E+009;1.565037816762924E-001;-6.640399247407913E-002;3.390084952116013E-003;2.365159336477518E-003;
2.416666666666667E+009;1.555568277835846E-001;-6.821165233850479E-002;3.486519213765860E-003;2.342930994927883E-003;
2.416833333333334E+009;1.548219323158264E-001;-7.026311010122299E-002;3.663201117888093E-003;2.118254313245416E-003;
2.417000000000000E+009;1.538233309984207E-001;-7.219729572534561E-002;3.454878926277161E-003;2.019602339714766E-003;
2.417166666666667E+009;1.531872451305389E-001;-7.403745502233505E-002;3.549823537468910E-003;1.956013031303883E-003;
2.417333333333334E+009;1.524535715579987E-001;-7.588451355695725E-002;3.469463903456926E-003;1.738287042826414E-003;
2.417500000000000E+009;1.518095880746841E-001;-7.796399295330048E-002;3.509743371978402E-003;1.796578988432884E-003;
2.417666666666667E+009;1.514333337545395E-001;-7.962298393249512E-002;3.599450690671802E-003;1.564304227940738E-003;
2.417833333333334E+009;1.510107666254044E-001;-8.150961250066757E-002;3.653397783637047E-003;1.490667578764260E-003;
2.418000000000000E+009;1.504290699958801E-001;-8.351190388202667E-002;3.696492640301585E-003;1.395373954437673E-003;
2.418166666666667E+009;1.502158045768738E-001;-8.496206998825073E-002;3.774740733206272E-003;1.226798165589571E-003;
2.418333333333334E+009;1.501551568508148E-001;-8.661665022373200E-002;3.722240682691336E-003;1.159237930551171E-003;
2.418500000000000E+009;1.497576981782913E-001;-8.820851892232895E-002;3.875878872349858E-003;1.023881952278316E-003;
2.418666666666667E+009;1.497194319963455E-001;-8.971755951642990E-002;3.810379188507795E-003;9.309689048677683E-004;
2.418833333333334E+009;1.495106369256973E-001;-9.115470200777054E-002;3.920581191778183E-003;7.883202633820474E-004;
2.419000000000000E+009;1.494868546724320E-001;-9.240442514419556E-002;4.003616981208324E-003;7.780026062391698E-004;
2.419166666666667E+009;1.494698077440262E-001;-9.350893646478653E-002;3.887259168550372E-003;4.791049286723137E-004;
2.419333333333334E+009;1.493760943412781E-001;-9.459900110960007E-002;3.809212939813733E-003;2.701032208278775E-004;
2.419500000000000E+009;1.496176272630692E-001;-9.579718112945557E-002;3.892655717208982E-003;2.250611432828009E-004;
2.419666666666667E+009;1.498783379793167E-001;-9.675322473049164E-002;3.726205090060830E-003;1.294153480557725E-004;
2.419833333333334E+009;1.499523818492889E-001;-9.720585495233536E-002;3.646957920864224E-003;5.771596534032142E-007;
2.420000000000000E+009;1.502277553081513E-001;-9.790046513080597E-002;3.739094128832221E-003;-8.869413431966677E-005;
2.420166666666667E+009;1.504180729389191E-001;-9.852798283100128E-002;3.707900876179338E-003;-3.935600398108363E-005;
2.420333333333334E+009;1.506921350955963E-001;-9.903489053249359E-002;3.583589568734169E-003;-1.732737437123433E-004;
2.420500000000000E+009;1.510717272758484E-001;-9.929966181516647E-002;3.608389524742961E-003;-1.879871851997450E-004;
2.420666666666667E+009;1.512454450130463E-001;-9.947800636291504E-002;3.582291537895799E-003;-2.038074017036706E-004;
2.420833333333334E+009;1.515183150768280E-001;-9.949064254760742E-002;3.663873299956322E-003;-4.886622773483396E-004;
2.421000000000000E+009;1.517567336559296E-001;-9.981632232666016E-002;3.625868819653988E-003;-4.400694742798805E-004;
2.421166666666667E+009;1.518704593181610E-001;-9.974899888038635E-002;3.651857608929277E-003;-4.600316169671714E-004;
2.421333333333334E+009;1.521751433610916E-001;-9.983388334512711E-002;3.691542660817504E-003;-6.849785568192601E-004;
2.421500000000000E+009;1.521302312612534E-001;-9.973044693470001E-002;3.772714873775840E-003;-7.856289739720523E-004;
2.421666666666667E+009;1.520615816116333E-001;-9.946893900632858E-002;3.772364929318428E-003;-7.634521462023258E-004;
2.421833333333334E+009;1.521869003772736E-001;-9.939840435981751E-002;3.924724180251360E-003;-8.739577024243772E-004;
2.422000000000000E+009;1.519256979227066E-001;-9.909784793853760E-002;3.907239530235529E-003;-1.065933029167354E-003;
2.422166666666667E+009;1.517878323793411E-001;-9.915795177221298E-002;3.887711092829704E-003;-1.194806769490242E-003;
2.422333333333334E+009;1.513696610927582E-001;-9.860803931951523E-002;4.042362794280052E-003;-1.349575235508382E-003;
2.422500000000000E+009;1.509429365396500E-001;-9.830430150032044E-002;3.902891883626580E-003;-1.647293567657471E-003;
2.422666666666667E+009;1.503906697034836E-001;-9.819900989532471E-002;3.912537358701229E-003;-1.769750961102545E-003;
2.422833333333334E+009;1.497287601232529E-001;-9.773978590965271E-002;3.790829796344042E-003;-2.017174381762743E-003;
2.423000000000000E+009;1.489065438508987E-001;-9.753131866455078E-002;3.750374773517251E-003;-2.117892261594534E-003;
2.423166666666667E+009;1.480753123760223E-001;-9.700653702020645E-002;3.724768990650773E-003;-2.369100926443934E-003;
2.423333333333334E+009;1.472333222627640E-001;-9.662675857543945E-002;3.571511711925268E-003;-2.489262260496616E-003;
2.423500000000000E+009;1.461056321859360E-001;-9.640263766050339E-002;3.434340469539166E-003;-2.689099870622158E-003;
2.423666666666667E+009;1.449600607156754E-001;-9.613281488418579E-002;3.187446855008602E-003;-2.736782655119896E-003;
2.423833333333334E+009;1.439747363328934E-001;-9.605346620082855E-002;3.279716242104769E-003;-2.915123244747520E-003;
2.424000000000000E+009;1.425370723009110E-001;-9.550787508487701E-002;3.029284765943885E-003;-2.923780120909214E-003;
2.424166666666667E+009;1.412780582904816E-001;-9.556806832551956E-002;2.894269768148661E-003;-2.851030090823770E-003;
2.424333333333334E+009;1.399660855531693E-001;-9.528966248035431E-002;2.749364590272307E-003;-3.075687447562814E-003;
2.424500000000000E+009;1.386027038097382E-001;-9.544341266155243E-002;2.586106536909938E-003;-3.079497255384922E-003;
2.424666666666667E+009;1.373724788427353E-001;-9.521869570016861E-002;2.496425062417984E-003;-3.227867186069489E-003;
2.424833333333334E+009;1.357482969760895E-001;-9.559315443038940E-002;2.462727949023247E-003;-3.180055413395166E-003;
2.425000000000000E+009;1.344939172267914E-001;-9.588838368654251E-002;2.442679833620787E-003;-3.374097170308232E-003;
2.425166666666667E+009;1.328198760747910E-001;-9.626130759716034E-002;2.426144666969776E-003;-3.211355302482843E-003;
2.425333333333334E+009;1.314505040645599E-001;-9.668093919754028E-002;2.263820264488459E-003;-3.306876635178924E-003;
2.425500000000000E+009;1.300670355558395E-001;-9.724870324134827E-002;2.066445536911488E-003;-3.361525712534785E-003;
2.425666666666667E+009;1.285420656204224E-001;-9.799641370773315E-002;2.010194351896644E-003;-3.300684271380305E-003;
2.425833333333334E+009;1.270934045314789E-001;-9.898814558982849E-002;2.087742090225220E-003;-3.353977343067527E-003;
2.426000000000000E+009;1.257660388946533E-001;-9.993100911378861E-002;2.002131659537554E-003;-3.349605947732925E-003;
2.426166666666667E+009;1.246321201324463E-001;-1.011019200086594E-001;1.777051598764956E-003;-3.533093724399805E-003;
2.426333333333334E+009;1.231917664408684E-001;-1.021868586540222E-001;1.785728032700717E-003;-3.576909424737096E-003;
2.426500000000000E+009;1.220340803265572E-001;-1.033821925520897E-001;1.747333561070263E-003;-3.551457775756717E-003;
2.426666666666667E+009;1.210789903998375E-001;-1.046162694692612E-001;1.503860927186906E-003;-3.699329216033220E-003;
2.426833333333334E+009;1.197281777858734E-001;-1.061470881104469E-001;1.652472070418298E-003;-3.641066839918494E-003;
2.427000000000000E+009;1.187159717082977E-001;-1.077967882156372E-001;1.494457945227623E-003;-3.797418205067515E-003;
2.427166666666667E+009;1.177394539117813E-001;-1.091837137937546E-001;1.440757187083364E-003;-3.684666007757187E-003;
2.427333333333334E+009;1.168304309248924E-001;-1.108757704496384E-001;1.466826419346035E-003;-3.751415293663740E-003;
2.427500000000000E+009;1.161158829927445E-001;-1.125871315598488E-001;1.385767944157124E-003;-3.874510293826461E-003;
2.427666666666667E+009;1.152556166052818E-001;-1.143447607755661E-001;1.273463945835829E-003;-3.907600883394480E-003;
2.427833333333334E+009;1.145812049508095E-001;-1.160229891538620E-001;1.142392749898136E-003;-3.914814442396164E-003;
