# Version 1.00
#
freq[Hz];re:Trc1_S11;im:Trc1_S11;re:Trc2_S21;im:Trc2_S21;
2.400000000000000E+009;1.583199352025986E-001;6.225179880857468E-002;1.969784731045365E-003;-2.034649485722184E-003;
2.400166666666667E+009;1.580966562032700E-001;6.084777042269707E-002;2.019294770434499E-003;-2.033868106082082E-003;
2.400333333333334E+009;1.578412652015686E-001;5.876312404870987E-002;2.009372459724546E-003;-2.220787573605776E-003;
2.400500000000000E+009;1.580597311258316E-001;5.684902146458626E-002;1.984526403248310E-003;-2.290647244080901E-003;
2.400666666666667E+009;1.578615009784699E-001;5.492749810218811E-002;1.986500341445208E-003;-2.331154886633158E-003;
2.400833333333334E+009;1.579476445913315E-001;5.302439630031586E-002;2.036233898252249E-003;-2.440390875563026E-003;
2.401000000000000E+009;1.581307202577591E-001;5.103252083063126E-002;1.930548925884068E-003;-2.682654419913888E-003;
2.401166666666667E+009;1.582162231206894E-001;4.876700416207314E-002;1.918234280310571E-003;-2.699150238186121E-003;
2.401333333333334E+009;1.583960056304932E-001;4.685927554965019E-002;1.877265633083880E-003;-2.826705807819963E-003;
2.401500000000000E+009;1.588020771741867E-001;4.483448714017868E-002;1.754022901877761E-003;-3.026596968993545E-003;
2.401666666666667E+009;1.590770334005356E-001;4.288380220532417E-002;1.829602988436818E-003;-3.247673623263836E-003;
2.401833333333334E+009;1.596492975950241E-001;4.076064750552177E-002;1.677650841884315E-003;-3.329026512801647E-003;
2.402000000000000E+009;1.598009020090103E-001;3.890101984143257E-002;1.517147291451693E-003;-3.523971885442734E-003;
2.402166666666667E+009;1.604235321283341E-001;3.685351088643074E-002;1.445563742890954E-003;-3.646276425570250E-003;
2.402333333333334E+009;1.608903706073761E-001;3.493992984294891E-002;1.270900014787912E-003;-3.955713473260403E-003;
2.402500000000000E+009;1.618276387453079E-001;3.327267616987228E-002;1.232706941664219E-003;-4.012802615761757E-003;
2.402666666666667E+009;1.624222546815872E-001;3.151353448629379E-002;8.802040247246623E-004;-4.201285075396299E-003;
2.402833333333334E+009;1.630469709634781E-001;2.968908660113812E-002;7.983859977684915E-004;-4.352076444774866E-003;
2.403000000000000E+009;1.638145446777344E-001;2.808217704296112E-002;6.670830771327019E-004;-4.308344796299934E-003;
2.403166666666667E+009;1.649655401706696E-001;2.645115368068218E-002;3.156976890750229E-004;-4.495082888752222E-003;
2.403333333333334E+009;1.657232493162155E-001;2.505001053214073E-002;1.541163946967572E-004;-4.494046326726675E-003;
2.403500000000000E+009;1.664472222328186E-001;2.358111366629601E-002;-2.070760529022664E-004;-4.509973339736462E-003;
2.403666666666667E+009;1.673262417316437E-001;2.217785827815533E-002;-4.563834518194199E-004;-4.578677006065846E-003;
2.403833333333334E+009;1.684840768575668E-001;2.090464718639851E-002;-6.357850506901741E-004;-4.626452922821045E-003;
2.404000000000000E+009;1.695104390382767E-001;1.971110329031944E-002;-9.549615788273513E-004;-4.480626434087753E-003;
2.404166666666667E+009;1.704295575618744E-001;1.858166418969631E-002;-1.316891983151436E-003;-4.645943176001310E-003;
2.404333333333334E+009;1.713292151689529E-001;1.762279495596886E-002;-1.649001147598028E-003;-4.560149274766445E-003;
2.404500000000000E+009;1.722083985805512E-001;1.645304821431637E-002;-1.837150659412146E-003;-4.462950862944126E-003;
2.404666666666667E+009;1.731238067150116E-001;1.580725610256195E-002;-1.939218025654554E-003;-4.374020267277956E-003;
2.404833333333334E+009;1.740722060203552E-001;1.501959655433893E-002;-2.191337523981929E-003;-4.228422418236733E-003;
2.405000000000000E+009;1.750404834747315E-001;1.409758534282446E-002;-2.387705957517028E-003;-4.051323048770428E-003;
2.405166666666667E+009;1.757638454437256E-001;1.352215185761452E-002;-2.691268688067794E-003;-3.885588841512799E-003;
2.405333333333334E+009;1.766215264797211E-001;1.296650525182486E-002;-2.713304013013840E-003;-3.847001818940043E-003;
2.405500000000000E+009;1.772621124982834E-001;1.241847127676010E-002;-2.857538638636470E-003;-3.628481412306428E-003;
2.405666666666667E+009;1.779672205448151E-001;1.200679037719965E-002;-2.911662682890892E-003;-3.436991944909096E-003;
2.405833333333334E+009;1.784861683845520E-001;1.166940294206142E-002;-3.173535689711571E-003;-3.309156047180295E-003;
2.406000000000000E+009;1.791023761034012E-001;1.102417148649693E-002;-3.167504910379648E-003;-3.286893246695399E-003;
2.406166666666667E+009;1.794683784246445E-001;1.090961694717407E-002;-3.346780547872186E-003;-2.999511780217290E-003;
2.406333333333334E+009;1.799912154674530E-001;1.042524166405201E-002;-3.457040991634131E-003;-2.840138273313642E-003;
2.406500000000000E+009;1.802158653736115E-001;1.018844731152058E-002;-3.517181379720569E-003;-2.550486708059907E-003;
2.406666666666667E+009;1.803663969039917E-001;9.829170070588589E-003;-3.578505245968700E-003;-2.452900400385261E-003;
2.406833333333334E+009;1.806214153766632E-001;9.423225186765194E-003;-3.670219564810395E-003;-2.368662040680647E-003;
2.407000000000000E+009;1.805892735719681E-001;9.278913959860802E-003;-3.780351718887687E-003;-2.038044854998589E-003;
2.407166666666667E+009;1.808508634567261E-001;8.922213688492775E-003;-3.827153239399195E-003;-2.025716705247760E-003;
2.407333333333334E+009;1.806337386369705E-001;8.483578450977802E-003;-3.538867458701134E-003;-1.893941545858979E-003;
2.407500000000000E+009;1.805326193571091E-001;8.043231442570686E-003;-3.713916521519423E-003;-1.747170812450349E-003;
2.407666666666667E+009;1.803419739007950E-001;7.652430795133114E-003;-3.883781377226114E-003;-1.592718530446291E-003;
2.407833333333334E+009;1.798513680696487E-001;6.997873540967703E-003;-4.110553767532110E-003;-1.432946301065385E-003;
2.408000000000000E+009;1.795493513345718E-001;6.415441166609526E-003;-3.919471055269241E-003;-1.425369642674923E-003;
2.408166666666667E+009;1.790961921215057E-001;5.845857318490744E-003;-3.839257871732116E-003;-1.191668910905719E-003;
2.408333333333334E+009;1.788206100463867E-001;5.064049735665321E-003;-3.927876241505146E-003;-1.106887357309461E-003;
2.408500000000000E+009;1.781118810176849E-001;4.230722319334745E-003;-4.019132349640131E-003;-9.635402821004391E-004;
2.408666666666667E+009;1.775510609149933E-001;3.330659354105592E-003;-4.000185057520866E-003;-8.482862613163889E-004;
2.408833333333334E+009;1.768642961978912E-001;2.271468518301845E-003;-3.873629262670875E-003;-5.679386085830629E-004;
2.409000000000000E+009;1.762765198945999E-001;1.303566503338516E-003;-4.019395913928747E-003;-5.580008146353066E-004;
2.409166666666667E+009;1.755740493535996E-001;4.628241003956646E-005;-3.965786192566156E-003;-3.976979933213443E-004;
2.409333333333334E+009;1.750454157590866E-001;-1.124349888414145E-003;-3.876104718074203E-003;-3.402490110602230E-004;
2.409500000000000E+009;1.743045300245285E-001;-2.489338163286448E-003;-3.809841116890311E-003;-3.107946758973412E-005;
2.409666666666667E+009;1.734194010496140E-001;-3.757801605388522E-003;-3.779352875426412E-003;-2.475632027199026E-005;
2.409833333333334E+009;1.726416498422623E-001;-5.175809841603041E-003;-3.736697603017092E-003;1.012111388263293E-004;
2.410000000000000E+009;1.721364855766296E-001;-6.723192054778338E-003;-3.659048816189170E-003;2.759575727395713E-004;
2.410166666666667E+009;1.716000437736511E-001;-8.296137675642967E-003;-3.707623574882746E-003;3.755516954697669E-004;
2.410333333333334E+009;1.710056364536285E-001;-9.853843599557877E-003;-3.650545608252287E-003;3.055433917324990E-004;
2.410500000000000E+009;1.703342199325562E-001;-1.173212006688118E-002;-3.594167996197939E-003;4.818190936930478E-004;
2.410666666666667E+009;1.697719395160675E-001;-1.354046538472176E-002;-3.497813595458865E-003;4.801368922926486E-004;
2.410833333333334E+009;1.694293320178986E-001;-1.513991598039866E-002;-3.488637041300535E-003;5.963154253549874E-004;
2.411000000000000E+009;1.690047383308411E-001;-1.702428236603737E-002;-3.605324309319258E-003;6.687073619104922E-004;
2.411166666666667E+009;1.686302572488785E-001;-1.909558288753033E-002;-3.559773787856102E-003;7.848364766687155E-004;
2.411333333333334E+009;1.682489514350891E-001;-2.074996940791607E-002;-3.469537710770965E-003;7.930338033474982E-004;
2.411500000000000E+009;1.682044118642807E-001;-2.299119345843792E-002;-3.561819437891245E-003;8.674744167365134E-004;
2.411666666666667E+009;1.682544946670532E-001;-2.484530583024025E-002;-3.578380681574345E-003;1.030943356454372E-003;
2.411833333333334E+009;1.681744605302811E-001;-2.678686939179897E-002;-3.495713928714395E-003;1.053743413649499E-003;
2.412000000000000E+009;1.682664453983307E-001;-2.868585847318173E-002;-3.489051479846239E-003;1.170578645542264E-003;
2.412166666666667E+009;1.681834161281586E-001;-3.061862662434578E-002;-3.452604403719306E-003;1.297323266044259E-003;
2.412333333333334E+009;1.683958321809769E-001;-3.246226534247398E-002;-3.552277572453022E-003;1.429519499652088E-003;
2.412500000000000E+009;1.685752719640732E-001;-3.447633609175682E-002;-3.396707586944103E-003;1.596388407051563E-003;
2.412666666666667E+009;1.689837425947189E-001;-3.640666231513023E-002;-3.681125817820430E-003;1.811996102333069E-003;
2.412833333333334E+009;1.693349480628967E-001;-3.825770691037178E-002;-3.581382101401687E-003;1.801608363166452E-003;
2.413000000000000E+009;1.696843355894089E-001;-4.007683321833611E-002;-3.436500206589699E-003;1.958000473678112E-003;
2.413166666666667E+009;1.700530499219894E-001;-4.177190735936165E-002;-3.374564228579402E-003;2.207803307101131E-003;
2.413333333333334E+009;1.705349832773209E-001;-4.328613355755806E-002;-3.322113305330277E-003;2.293323632329702E-003;
2.413500000000000E+009;1.709932535886765E-001;-4.511385038495064E-002;-3.063009353354573E-003;2.535009756684303E-003;
2.413666666666667E+009;1.716358661651611E-001;-4.656217619776726E-002;-3.114856081083417E-003;2.583877183496952E-003;
2.413833333333334E+009;1.720713227987289E-001;-4.797532036900520E-002;-2.964924555271864E-003;2.559121232479811E-003;
2.414000000000000E+009;1.726743727922440E-001;-4.935497790575028E-002;-3.011905355378985E-003;2.784840296953917E-003;
2.414166666666667E+009;1.733163744211197E-001;-5.080144479870796E-002;-2.901443978771567E-003;2.840248402208090E-003;
2.414333333333334E+009;1.737255156040192E-001;-5.204569175839424E-002;-2.687147818505764E-003;3.113604383543134E-003;
2.414500000000000E+009;1.745402067899704E-001;-5.312679708003998E-002;-2.370533067733049E-003;3.069931408390403E-003;
2.414666666666667E+009;1.749017834663391E-001;-5.420756340026856E-002;-2.330635907128453E-003;3.176868893206120E-003;
2.414833333333334E+009;1.753566712141037E-001;-5.518649891018868E-002;-2.218612004071474E-003;3.175388555973768E-003;
2.415000000000000E+009;1.758687943220139E-001;-5.599918588995934E-002;-2.111276611685753E-003;3.390278201550245E-003;
2.415166666666667E+009;1.762651652097702E-001;-5.672005563974381E-002;-2.033046446740627E-003;3.270829096436501E-003;
2.415333333333334E+009;1.767174750566483E-001;-5.757137015461922E-002;-1.873746281489730E-003;3.433926496654749E-003;
2.415500000000000E+009;1.769072115421295E-001;-5.814868211746216E-002;-1.652111182920635E-003;3.408014774322510E-003;
2.415666666666667E+009;1.771433651447296E-001;-5.868173018097878E-002;-1.520026475191116E-003;3.443296300247312E-003;
2.415833333333334E+009;1.774099916219711E-001;-5.918763205409050E-002;-1.277636736631393E-003;3.446918213739991E-003;
2.416000000000000E+009;1.775322705507278E-001;-5.957562103867531E-002;-1.302588032558560E-003;3.557664342224598E-003;
2.416166666666667E+009;1.777284294366837E-001;-6.001933291554451E-002;-1.157902530394495E-003;3.563893493264914E-003;
2.416333333333334E+009;1.775092184543610E-001;-6.020934507250786E-002;-1.026003039442003E-003;3.560126526281238E-003;
2.416500000000000E+009;1.775206029415131E-001;-6.065057963132858E-002;-7.979690562933683E-004;3.441520966589451E-003;
2.416666666666667E+009;1.772689223289490E-001;-6.077855452895165E-002;-8.212433895096183E-004;3.313221968710423E-003;
2.416833333333334E+009;1.771806925535202E-001;-6.115453317761421E-002;-6.450346554629505E-004;3.297050949186087E-003;
2.417000000000000E+009;1.766292303800583E-001;-6.139259040355682E-002;-5.169804790057242E-004;3.417372470721602E-003;
2.417166666666667E+009;1.761935651302338E-001;-6.145462393760681E-002;-4.570367746055126E-004;3.324083518236876E-003;
2.417333333333334E+009;1.756999492645264E-001;-6.170330196619034E-002;-2.839550434146076E-004;3.368689212948084E-003;
2.417500000000000E+009;1.750628948211670E-001;-6.199343502521515E-002;-3.200176870450378E-004;3.327124752104282E-003;
2.417666666666667E+009;1.743946224451065E-001;-6.208562850952148E-002;-2.571715740486980E-004;3.206484485417604E-003;
2.417833333333334E+009;1.735704839229584E-001;-6.241659075021744E-002;2.768277227005456E-005;3.216661512851715E-003;
2.418000000000000E+009;1.727205365896225E-001;-6.270121037960053E-002;-9.108714584726840E-005;3.259339602664113E-003;
2.418166666666667E+009;1.716784834861755E-001;-6.305258721113205E-002;-1.449938135920093E-004;3.160563530400395E-003;
2.418333333333334E+009;1.709743738174439E-001;-6.344728916883469E-002;-8.046560105867684E-005;3.105946583673358E-003;
2.418500000000000E+009;1.698238253593445E-001;-6.373316049575806E-002;-5.772269105364103E-006;3.151527140289545E-003;
2.418666666666667E+009;1.688442975282669E-001;-6.424187868833542E-002;7.404152711387724E-005;3.186128335073590E-003;
2.418833333333334E+009;1.675845086574554E-001;-6.484432518482208E-002;1.959821820491925E-004;3.252621740102768E-003;
2.419000000000000E+009;1.663553416728973E-001;-6.534679979085922E-002;2.169179206248373E-004;3.099673660472035E-003;
2.419166666666667E+009;1.651568561792374E-001;-6.613627821207047E-002;2.633485710248351E-004;3.004485042765737E-003;
2.419333333333334E+009;1.637732088565826E-001;-6.662283837795258E-002;3.898828290402889E-004;3.048179903998971E-003;
2.419500000000000E+009;1.627100557088852E-001;-6.757488101720810E-002;4.759217554237694E-004;3.215659176930785E-003;
2.419666666666667E+009;1.617178320884705E-001;-6.852316856384277E-002;5.360248615033925E-004;3.036556299775839E-003;
2.419833333333334E+009;1.603294163942337E-001;-6.927357614040375E-002;4.848456883337349E-004;3.149085910990834E-003;
2.420000000000000E+009;1.591859906911850E-001;-7.035288959741592E-002;6.836397806182504E-004;3.003473626449704E-003;
2.420166666666667E+009;1.581145226955414E-001;-7.149527221918106E-002;7.215043297037482E-004;3.176115918904543E-003;
2.420333333333334E+009;1.570854187011719E-001;-7.268465310335159E-002;5.773181328549981E-004;3.031402593478560E-003;
2.420500000000000E+009;1.561602801084518E-001;-7.392697036266327E-002;7.959571667015553E-004;2.996790222823620E-003;
2.420666666666667E+009;1.550686210393906E-001;-7.510625571012497E-002;8.661491447128356E-004;3.055485663935542E-003;
2.420833333333334E+009;1.540724784135819E-001;-7.666786015033722E-002;7.582862162962556E-004;3.189797513186932E-003;
2.421000000000000E+009;1.532254964113236E-001;-7.806329429149628E-002;9.945029160007834E-004;2.969272900372744E-003;
2.421166666666667E+009;1.525775343179703E-001;-7.955148816108704E-002;1.264376798644662E-003;3.005395643413067E-003;
2.421333333333334E+009;1.517929732799530E-001;-8.104124665260315E-002;1.182117848657072E-003;3.069336758926511E-003;
2.421500000000000E+009;1.512414813041687E-001;-8.265327662229538E-002;1.161216758191586E-003;3.003193996846676E-003;
2.421666666666667E+009;1.507016271352768E-001;-8.434879034757614E-002;1.350981299765408E-003;3.122625872492790E-003;
2.421833333333334E+009;1.504222452640533E-001;-8.599361777305603E-002;1.336754765361548E-003;3.108356846496463E-003;
2.422000000000000E+009;1.498826444149017E-001;-8.786605298519135E-002;1.526191248558462E-003;3.137328429147601E-003;
2.422166666666667E+009;1.496533751487732E-001;-8.960058540105820E-002;1.629482721909881E-003;3.074512351304293E-003;
2.422333333333334E+009;1.494203358888626E-001;-9.119712561368942E-002;1.629450940527022E-003;3.130535362288356E-003;
2.422500000000000E+009;1.493467688560486E-001;-9.276708215475082E-002;1.819207682274282E-003;3.152726218104363E-003;
2.422666666666667E+009;1.491298824548721E-001;-9.467671811580658E-002;1.843968173488975E-003;3.042560536414385E-003;
2.422833333333334E+009;1.491617709398270E-001;-9.648801386356354E-002;2.041906816884875E-003;3.106322605162859E-003;
2.423000000000000E+009;1.493481546640396E-001;-9.801341593265533E-002;2.129463711753488E-003;3.051045350730419E-003;
2.423166666666667E+009;1.495204716920853E-001;-9.963868558406830E-002;2.309957984834909E-003;3.006462240591645E-003;
2.423333333333334E+009;1.498883664608002E-001;-1.009758487343788E-001;2.470336621627212E-003;2.917461795732379E-003;
2.423500000000000E+009;1.502092331647873E-001;-1.027526408433914E-001;2.434730296954513E-003;2.901570638641715E-003;
2.423666666666667E+009;1.503579616546631E-001;-1.044788435101509E-001;2.508602337911725E-003;2.852983539924026E-003;
2.423833333333334E+009;1.510667055845261E-001;-1.058159619569778E-001;2.723313402384520E-003;2.759472467005253E-003;
2.424000000000000E+009;1.511372774839401E-001;-1.069769859313965E-001;2.913208445534110E-003;2.731022192165256E-003;
2.424166666666667E+009;1.516509503126144E-001;-1.084210947155953E-001;2.898023463785648E-003;2.735025715082884E-003;
2.424333333333334E+009;1.521578133106232E-001;-1.094747558236122E-001;3.058429341763258E-003;2.545633818954229E-003;
2.424500000000000E+009;1.527882963418961E-001;-1.108359843492508E-001;3.303549252450466E-003;2.532826736569405E-003;
2.424666666666667E+009;1.533219665288925E-001;-1.117127314209938E-001;3.317833412438631E-003;2.419668016955257E-003;
2.424833333333334E+009;1.535130292177200E-001;-1.127328574657440E-001;3.561350284144282E-003;2.187774982303381E-003;
2.425000000000000E+009;1.542296111583710E-001;-1.137254685163498E-001;3.549123415723443E-003;2.047996968030930E-003;
2.425166666666667E+009;1.544175148010254E-001;-1.145280972123146E-001;3.675056388601661E-003;2.091195434331894E-003;
2.425333333333334E+009;1.550266295671463E-001;-1.153386980295181E-001;3.703439608216286E-003;1.861479599028826E-003;
2.425500000000000E+009;1.554204374551773E-001;-1.161273941397667E-001;3.714128630235791E-003;1.721159555017948E-003;
2.425666666666667E+009;1.553807854652405E-001;-1.166536659002304E-001;3.925385419279337E-003;1.601088908500969E-003;
2.425833333333334E+009;1.558142304420471E-001;-1.171034872531891E-001;4.119980614632368E-003;1.480966340750456E-003;
2.426000000000000E+009;1.559058874845505E-001;-1.177598759531975E-001;4.150247201323509E-003;1.327858539298177E-003;
2.426166666666667E+009;1.563344001770020E-001;-1.180623993277550E-001;4.280427936464548E-003;1.114459475502372E-003;
2.426333333333334E+009;1.561944633722305E-001;-1.183021590113640E-001;4.209619946777821E-003;1.032568863593042E-003;
2.426500000000000E+009;1.563148796558380E-001;-1.185289174318314E-001;4.338671453297138E-003;8.362187072634697E-004;
2.426666666666667E+009;1.563945859670639E-001;-1.185924261808395E-001;4.386534914374352E-003;7.372262189164758E-004;
2.426833333333334E+009;1.561639904975891E-001;-1.188810318708420E-001;4.292230121791363E-003;4.093019233550876E-004;
2.427000000000000E+009;1.558108627796173E-001;-1.191340386867523E-001;4.282061476260424E-003;4.610694304574281E-004;
2.427166666666667E+009;1.555081009864807E-001;-1.190499812364578E-001;4.232677165418863E-003;8.891996003512759E-006;
2.427333333333334E+009;1.549668461084366E-001;-1.192586869001389E-001;4.297111649066210E-003;-9.393481741426513E-005;
2.427500000000000E+009;1.545754969120026E-001;-1.193426549434662E-001;4.276613704860210E-003;-2.199110458604991E-004;
2.427666666666667E+009;1.538071185350418E-001;-1.193247437477112E-001;4.166197963058949E-003;-3.679830988403410E-004;
2.427833333333334E+009;1.530137956142426E-001;-1.195526272058487E-001;4.160019103437662E-003;-4.543980758171529E-004;
