# Version 1.00
#
freq[Hz];re:Trc1_S11;im:Trc1_S11;re:Trc2_S21;im:Trc2_S21;
2.400000000000000E+009;1.581641286611557E-001;6.238734722137451E-002;2.125986386090517E-003;-2.203908516094089E-003;
2.400166666666667E+009;1.580246388912201E-001;6.073929741978645E-002;2.061803126707673E-003;-2.334343036636710E-003;
2.400333333333334E+009;1.577890813350678E-001;5.897569283843041E-002;2.140612108632922E-003;-2.417163224890828E-003;
2.400500000000000E+009;1.578834056854248E-001;5.705955252051354E-002;2.018212573602796E-003;-2.371229231357575E-003;
2.400666666666667E+009;1.579358875751495E-001;5.491513013839722E-002;1.941231894306839E-003;-2.646411769092083E-003;
2.400833333333334E+009;1.580429226160049E-001;5.313373729586601E-002;1.918945927172899E-003;-2.675572177395225E-003;
2.401000000000000E+009;1.579899340867996E-001;5.111894384026527E-002;1.926700468175113E-003;-2.621233696117997E-003;
2.401166666666667E+009;1.582585722208023E-001;4.916195198893547E-002;1.756959827616811E-003;-2.967641921713948E-003;
2.401333333333334E+009;1.583288908004761E-001;4.694448038935661E-002;1.746642170473933E-003;-3.256279509514570E-003;
2.401500000000000E+009;1.587844341993332E-001;4.491909220814705E-002;1.810694113373756E-003;-3.184245433658361E-003;
2.401666666666667E+009;1.591397523880005E-001;4.281399771571159E-002;1.623691525310278E-003;-3.481745719909668E-003;
2.401833333333334E+009;1.593872904777527E-001;4.093696177005768E-002;1.470574992708862E-003;-3.440531902015209E-003;
2.402000000000000E+009;1.597888320684433E-001;3.889031335711479E-002;1.392807113006711E-003;-3.638616297394037E-003;
2.402166666666667E+009;1.604616791009903E-001;3.679668158292770E-002;1.409185002557933E-003;-3.937096800655127E-003;
2.402333333333334E+009;1.608346700668335E-001;3.509126976132393E-002;1.329623162746429E-003;-3.973127808421850E-003;
2.402500000000000E+009;1.617392003536224E-001;3.315768390893936E-002;1.040376024320722E-003;-4.000025335699320E-003;
2.402666666666667E+009;1.622113883495331E-001;3.143427520990372E-002;9.218711056746543E-004;-4.285934381186962E-003;
2.402833333333334E+009;1.631189435720444E-001;2.975822612643242E-002;6.535837892442942E-004;-4.379973281174898E-003;
2.403000000000000E+009;1.638839840888977E-001;2.825604006648064E-002;6.294942577369511E-004;-4.283213987946510E-003;
2.403166666666667E+009;1.646872460842133E-001;2.653371728956699E-002;2.837297215592116E-004;-4.641312640160322E-003;
2.403333333333334E+009;1.656113415956497E-001;2.502241730690002E-002;-1.022351716528647E-005;-4.567055497318506E-003;
2.403500000000000E+009;1.664488762617111E-001;2.362059801816940E-002;-2.789968566503376E-004;-4.740991163998842E-003;
2.403666666666667E+009;1.676108092069626E-001;2.226693183183670E-002;-6.123214261606336E-004;-4.666631110012531E-003;
2.403833333333334E+009;1.685315519571304E-001;2.093182690441608E-002;-7.935604662634432E-004;-4.698496777564287E-003;
2.404000000000000E+009;1.694801300764084E-001;1.987830549478531E-002;-1.042143558152020E-003;-4.652828909456730E-003;
2.404166666666667E+009;1.704275310039520E-001;1.859100162982941E-002;-1.231202040798962E-003;-4.521341528743506E-003;
2.404333333333334E+009;1.713690459728241E-001;1.771800220012665E-002;-1.631678664125502E-003;-4.681220743805170E-003;
2.404500000000000E+009;1.721812337636948E-001;1.657114364206791E-002;-1.774191623553634E-003;-4.443632438778877E-003;
2.404666666666667E+009;1.732529699802399E-001;1.562513597309589E-002;-2.091529546305537E-003;-4.158180672675371E-003;
2.404833333333334E+009;1.740833222866058E-001;1.494044158607721E-002;-2.372777787968516E-003;-4.093796480447054E-003;
2.405000000000000E+009;1.748612374067307E-001;1.423938386142254E-002;-2.453868044540286E-003;-3.989002201706171E-003;
2.405166666666667E+009;1.758428215980530E-001;1.356013398617506E-002;-2.654551528394222E-003;-3.956974949687719E-003;
2.405333333333334E+009;1.766443401575089E-001;1.287934649735689E-002;-2.759432652965188E-003;-3.748003160580993E-003;
2.405500000000000E+009;1.772903949022293E-001;1.242213230580092E-002;-2.784529468044639E-003;-3.561926539987326E-003;
2.405666666666667E+009;1.779213547706604E-001;1.211220864206553E-002;-2.908133435994387E-003;-3.388191107660532E-003;
2.405833333333334E+009;1.784316450357437E-001;1.168974768370390E-002;-3.089439123868942E-003;-3.182554151862860E-003;
2.406000000000000E+009;1.789858937263489E-001;1.107036415487528E-002;-3.240714780986309E-003;-3.013469511643052E-003;
2.406166666666667E+009;1.793819367885590E-001;1.091074105352163E-002;-3.421673784032464E-003;-2.905981149524450E-003;
2.406333333333334E+009;1.799382269382477E-001;1.052653230726719E-002;-3.475201316177845E-003;-2.721527591347694E-003;
2.406500000000000E+009;1.803136169910431E-001;1.022270973771811E-002;-3.439130494371057E-003;-2.614096738398075E-003;
2.406666666666667E+009;1.802583932876587E-001;9.901852346956730E-003;-3.656773362308741E-003;-2.466687001287937E-003;
2.406833333333334E+009;1.806332767009735E-001;9.478043764829636E-003;-3.753610653802753E-003;-2.229827456176281E-003;
2.407000000000000E+009;1.807279437780380E-001;9.142084978520870E-003;-3.506724722683430E-003;-2.186363330110908E-003;
2.407166666666667E+009;1.807806342840195E-001;8.969247341156006E-003;-3.743114881217480E-003;-2.155696041882038E-003;
2.407333333333334E+009;1.805784851312637E-001;8.380852639675140E-003;-3.657779656350613E-003;-1.989874988794327E-003;
2.407500000000000E+009;1.803901046514511E-001;8.133820258080959E-003;-3.753356635570526E-003;-1.755704637616873E-003;
2.407666666666667E+009;1.802748590707779E-001;7.655129767954350E-003;-3.662289585918188E-003;-1.580251380801201E-003;
2.407833333333334E+009;1.798516064882278E-001;6.910976488143206E-003;-3.785307984799147E-003;-1.309421262703836E-003;
2.408000000000000E+009;1.795866638422012E-001;6.472960114479065E-003;-3.898307913914323E-003;-1.299211406148970E-003;
2.408166666666667E+009;1.790781915187836E-001;5.932865664362907E-003;-3.894728142768145E-003;-1.253267866559327E-003;
2.408333333333334E+009;1.787896752357483E-001;5.163097754120827E-003;-3.979844506829977E-003;-9.481390588916838E-004;
2.408500000000000E+009;1.780165135860443E-001;4.254443105310202E-003;-3.729608608409762E-003;-8.963505970314145E-004;
2.408666666666667E+009;1.776966005563736E-001;3.296940820291638E-003;-3.970618825405836E-003;-7.549136062152684E-004;
2.408833333333334E+009;1.768325567245483E-001;2.339018974453211E-003;-3.722048597410321E-003;-7.039559422992170E-004;
2.409000000000000E+009;1.762299090623856E-001;1.335810520686209E-003;-3.868317930027843E-003;-5.807970301248133E-004;
2.409166666666667E+009;1.755755692720413E-001;2.205519849667326E-004;-3.901279531419277E-003;-3.492757386993617E-004;
2.409333333333334E+009;1.748881787061691E-001;-1.133921439759433E-003;-3.693724749609828E-003;-3.479610022623092E-004;
2.409500000000000E+009;1.741192638874054E-001;-2.403618302196264E-003;-3.734454046934843E-003;-1.096385676646605E-004;
2.409666666666667E+009;1.735085844993591E-001;-3.612806554883719E-003;-3.766307840123773E-003;-1.182635678560473E-004;
2.409833333333334E+009;1.728622317314148E-001;-5.003616213798523E-003;-3.796985605731607E-003;-2.220246278739069E-005;
2.410000000000000E+009;1.722113341093063E-001;-6.699975114315748E-003;-3.784816944971681E-003;1.961271627806127E-004;
2.410166666666667E+009;1.716140061616898E-001;-8.124984800815582E-003;-3.629222046583891E-003;1.706801704131067E-004;
2.410333333333334E+009;1.709187179803848E-001;-9.798226878046989E-003;-3.669901518151164E-003;3.216378972865641E-004;
2.410500000000000E+009;1.704464703798294E-001;-1.152650546282530E-002;-3.767985850572586E-003;3.584999067243189E-004;
2.410666666666667E+009;1.698172241449356E-001;-1.353825535625219E-002;-3.633380169048905E-003;3.747761365957558E-004;
2.410833333333334E+009;1.695888489484787E-001;-1.526269968599081E-002;-3.571894718334079E-003;5.008284351788461E-004;
2.411000000000000E+009;1.690359562635422E-001;-1.684734970331192E-002;-3.626699792221189E-003;6.638130871579051E-004;
2.411166666666667E+009;1.687649190425873E-001;-1.903362572193146E-002;-3.450367134064436E-003;7.779779261909425E-004;
2.411333333333334E+009;1.685786247253418E-001;-2.075136825442314E-002;-3.595416201278567E-003;9.125741780735552E-004;
2.411500000000000E+009;1.681150048971176E-001;-2.294069156050682E-002;-3.540616715326905E-003;7.686186581850052E-004;
2.411666666666667E+009;1.681736260652542E-001;-2.473881654441357E-002;-3.678260603919625E-003;1.096793683245778E-003;
2.411833333333334E+009;1.680728495121002E-001;-2.663148194551468E-002;-3.587970742955804E-003;1.012285705655813E-003;
2.412000000000000E+009;1.681696474552155E-001;-2.860231511294842E-002;-3.646946744993329E-003;1.182700623758137E-003;
2.412166666666667E+009;1.682640910148621E-001;-3.067522309720516E-002;-3.459729254245758E-003;1.377926324494183E-003;
2.412333333333334E+009;1.686358302831650E-001;-3.259505331516266E-002;-3.435691585764289E-003;1.555416150949895E-003;
2.412500000000000E+009;1.685833036899567E-001;-3.428928554058075E-002;-3.442636458203197E-003;1.501758233644068E-003;
2.412666666666667E+009;1.691708862781525E-001;-3.637083619832993E-002;-3.484234912320972E-003;1.740207429975271E-003;
2.412833333333334E+009;1.694191992282867E-001;-3.818906098604202E-002;-3.413058351725340E-003;1.897430513054133E-003;
2.413000000000000E+009;1.697777062654495E-001;-3.983331471681595E-002;-3.317697905004025E-003;1.992566045373678E-003;
2.413166666666667E+009;1.700611859560013E-001;-4.168266430497170E-002;-3.324839053675532E-003;2.157489769160748E-003;
2.413333333333334E+009;1.704420000314713E-001;-4.338687658309937E-002;-3.190621733665466E-003;2.188061596825719E-003;
2.413500000000000E+009;1.710299998521805E-001;-4.506039246916771E-002;-3.151945536956191E-003;2.322957618162036E-003;
2.413666666666667E+009;1.715245097875595E-001;-4.659835994243622E-002;-3.038140246644616E-003;2.561195986345410E-003;
2.413833333333334E+009;1.720162630081177E-001;-4.806016013026238E-002;-2.966639120131731E-003;2.779529662802815E-003;
2.414000000000000E+009;1.725462228059769E-001;-4.947405681014061E-002;-2.806488657370210E-003;2.966730855405331E-003;
2.414166666666667E+009;1.732382476329804E-001;-5.085519701242447E-002;-2.718844916671515E-003;2.810039557516575E-003;
2.414333333333334E+009;1.737542748451233E-001;-5.196606740355492E-002;-2.614158438518643E-003;2.989922882989049E-003;
2.414500000000000E+009;1.745757609605789E-001;-5.305838584899902E-002;-2.421446144580841E-003;3.057855414226651E-003;
2.414666666666667E+009;1.749266088008881E-001;-5.399979650974274E-002;-2.284104470163584E-003;3.189258044585586E-003;
2.414833333333334E+009;1.754595637321472E-001;-5.506782978773117E-002;-2.098882570862770E-003;3.159144427627325E-003;
2.415000000000000E+009;1.756646186113358E-001;-5.591202527284622E-002;-1.928497338667512E-003;3.294394351541996E-003;
2.415166666666667E+009;1.762132346630096E-001;-5.670212954282761E-002;-1.900959759950638E-003;3.291886299848557E-003;
2.415333333333334E+009;1.767350137233734E-001;-5.751575902104378E-002;-1.737014506943524E-003;3.300217213109136E-003;
2.415500000000000E+009;1.769666969776154E-001;-5.804553627967835E-002;-1.622805022634566E-003;3.388229757547379E-003;
2.415666666666667E+009;1.772375106811523E-001;-5.852074548602104E-002;-1.428726478479803E-003;3.360742004588246E-003;
2.415833333333334E+009;1.774721443653107E-001;-5.917719379067421E-002;-1.297694980166853E-003;3.452487289905548E-003;
2.416000000000000E+009;1.774970293045044E-001;-5.954582244157791E-002;-1.240397803485394E-003;3.503812011331320E-003;
2.416166666666667E+009;1.777368187904358E-001;-5.988035723567009E-002;-1.194663462229073E-003;3.488664282485843E-003;
2.416333333333334E+009;1.776591539382935E-001;-6.015765294432640E-002;-9.141115006059408E-004;3.482326166704297E-003;
2.416500000000000E+009;1.775863468647003E-001;-6.050628796219826E-002;-8.812639280222356E-004;3.555864328518510E-003;
2.416666666666667E+009;1.772661209106445E-001;-6.065254285931587E-002;-8.007704745978117E-004;3.329574828967452E-003;
2.416833333333334E+009;1.771994978189468E-001;-6.117698550224304E-002;-7.159385131672025E-004;3.445452544838190E-003;
2.417000000000000E+009;1.765368431806564E-001;-6.131083890795708E-002;-5.461887922137976E-004;3.368057077750564E-003;
2.417166666666667E+009;1.761779487133026E-001;-6.143638491630554E-002;-3.998829924967140E-004;3.354317508637905E-003;
2.417333333333334E+009;1.756108701229096E-001;-6.152386590838432E-002;-3.516222059261054E-004;3.307215403765440E-003;
2.417500000000000E+009;1.750541776418686E-001;-6.202450022101402E-002;-3.150001284666359E-004;3.244590479880571E-003;
2.417666666666667E+009;1.744101345539093E-001;-6.207859143614769E-002;-2.178612921852619E-004;3.318286035209894E-003;
2.417833333333334E+009;1.735599786043167E-001;-6.236715242266655E-002;-1.298685383517295E-004;3.175464924424887E-003;
2.418000000000000E+009;1.727284342050552E-001;-6.262065470218658E-002;-2.189332735724747E-005;3.293452551588416E-003;
2.418166666666667E+009;1.717221736907959E-001;-6.282064318656921E-002;5.157154373591766E-005;3.172290977090597E-003;
2.418333333333334E+009;1.709654480218887E-001;-6.329144537448883E-002;-5.512070856639184E-005;3.197502344846726E-003;
2.418500000000000E+009;1.697493344545364E-001;-6.374143064022064E-002;8.118408732116222E-005;3.167770337313414E-003;
2.418666666666667E+009;1.688153147697449E-001;-6.421054899692535E-002;2.223173360107467E-004;3.165987087413669E-003;
2.418833333333334E+009;1.675616800785065E-001;-6.478219479322434E-002;1.971397432498634E-004;3.060545539483428E-003;
2.419000000000000E+009;1.662242561578751E-001;-6.536891311407089E-002;3.357869572937489E-004;3.043159143999219E-003;
2.419166666666667E+009;1.651194542646408E-001;-6.598474085330963E-002;2.347372501390055E-004;3.025688230991364E-003;
2.419333333333334E+009;1.638041138648987E-001;-6.654900312423706E-002;3.641890361905098E-004;3.014444140717387E-003;
2.419500000000000E+009;1.625541448593140E-001;-6.751634180545807E-002;3.326832957100123E-004;3.171543357893825E-003;
2.419666666666667E+009;1.616451591253281E-001;-6.838473677635193E-002;4.326378111727536E-004;3.054144559428096E-003;
2.419833333333334E+009;1.603509485721588E-001;-6.932695955038071E-002;6.356289377436042E-004;3.079447196796536E-003;
2.420000000000000E+009;1.591973155736923E-001;-7.039649784564972E-002;6.273662438616157E-004;2.961857942864299E-003;
2.420166666666667E+009;1.581796705722809E-001;-7.148616760969162E-002;7.085911929607391E-004;3.018736839294434E-003;
2.420333333333334E+009;1.570066660642624E-001;-7.275842130184174E-002;7.950844592414796E-004;3.006689017638564E-003;
2.420500000000000E+009;1.560931503772736E-001;-7.377959787845612E-002;7.796414429321885E-004;3.054543165490031E-003;
2.420666666666667E+009;1.550480574369431E-001;-7.509155571460724E-002;8.450901950709522E-004;3.195157740265131E-003;
2.420833333333334E+009;1.542128026485443E-001;-7.666144520044327E-002;9.773041820153594E-004;3.033615183085203E-003;
2.421000000000000E+009;1.531234532594681E-001;-7.806944847106934E-002;8.820384391583502E-004;3.142605768516660E-003;
2.421166666666667E+009;1.525005847215653E-001;-7.953723520040512E-002;1.116216182708740E-003;3.108698176220059E-003;
2.421333333333334E+009;1.520254760980606E-001;-8.106721937656403E-002;1.100784982554615E-003;3.077867673709989E-003;
2.421500000000000E+009;1.512133181095123E-001;-8.274917304515839E-002;1.252721180208027E-003;3.081204136833549E-003;
2.421666666666667E+009;1.507522761821747E-001;-8.428804576396942E-002;1.245303661562502E-003;3.017225768417120E-003;
2.421833333333334E+009;1.503371596336365E-001;-8.609416335821152E-002;1.150964526459575E-003;3.010760527104139E-003;
2.422000000000000E+009;1.498077660799027E-001;-8.773008733987808E-002;1.502576051279903E-003;3.174299607053399E-003;
2.422166666666667E+009;1.496324986219406E-001;-8.975830674171448E-002;1.526412670500577E-003;3.001427510753274E-003;
2.422333333333334E+009;1.494549810886383E-001;-9.111916273832321E-002;1.683126669377089E-003;3.060836577787995E-003;
2.422500000000000E+009;1.491869986057282E-001;-9.291493892669678E-002;1.661881804466248E-003;3.078251145780087E-003;
2.422666666666667E+009;1.491746902465820E-001;-9.460847079753876E-002;1.789096277207136E-003;3.045939141884446E-003;
2.422833333333334E+009;1.492545157670975E-001;-9.647786617279053E-002;1.939089503139257E-003;2.892364747822285E-003;
2.423000000000000E+009;1.493095159530640E-001;-9.812297672033310E-002;1.900486182421446E-003;3.055865643545985E-003;
2.423166666666667E+009;1.495917141437531E-001;-9.956257045269013E-002;2.233804669231176E-003;3.092288738116622E-003;
2.423333333333334E+009;1.499653607606888E-001;-1.011764109134674E-001;2.248327247798443E-003;2.908536465838552E-003;
2.423500000000000E+009;1.500876396894455E-001;-1.027640923857689E-001;2.377209020778537E-003;2.845351351425052E-003;
2.423666666666667E+009;1.503510922193527E-001;-1.044822260737419E-001;2.568254712969065E-003;2.973483409732580E-003;
2.423833333333334E+009;1.510013639926910E-001;-1.057978942990303E-001;2.771333325654268E-003;2.786753233522177E-003;
2.424000000000000E+009;1.511988937854767E-001;-1.070832759141922E-001;2.919175196439028E-003;2.723331097513437E-003;
2.424166666666667E+009;1.517006009817123E-001;-1.082995831966400E-001;3.006418934091926E-003;2.657991601154208E-003;
2.424333333333334E+009;1.521220803260803E-001;-1.094975620508194E-001;3.162213368341327E-003;2.602012129500508E-003;
2.424500000000000E+009;1.526534408330917E-001;-1.108071357011795E-001;3.319972660392523E-003;2.495521446689963E-003;
2.424666666666667E+009;1.533636301755905E-001;-1.116097122430801E-001;3.386325901374221E-003;2.357563469558954E-003;
2.424833333333334E+009;1.536255776882172E-001;-1.126826032996178E-001;3.655420616269112E-003;2.312028314918280E-003;
2.425000000000000E+009;1.540841758251190E-001;-1.135731264948845E-001;3.648078301921487E-003;2.209619618952274E-003;
2.425166666666667E+009;1.543872505426407E-001;-1.145177707076073E-001;3.644993994385004E-003;2.022735774517059E-003;
2.425333333333334E+009;1.549874395132065E-001;-1.152279675006867E-001;3.725882852450013E-003;1.870803884230554E-003;
2.425500000000000E+009;1.553371101617813E-001;-1.159910485148430E-001;4.002174362540245E-003;1.648430363275111E-003;
2.425666666666667E+009;1.554706245660782E-001;-1.165867000818253E-001;4.037048667669296E-003;1.633947947993875E-003;
2.425833333333334E+009;1.558363437652588E-001;-1.170896813273430E-001;4.170915577560663E-003;1.274126814678311E-003;
2.426000000000000E+009;1.559919118881226E-001;-1.176463589072228E-001;4.099904559552670E-003;1.254690461792052E-003;
2.426166666666667E+009;1.563839763402939E-001;-1.180441379547119E-001;4.099713638424873E-003;1.064781215973198E-003;
2.426333333333334E+009;1.563671827316284E-001;-1.182241663336754E-001;4.312642384320498E-003;9.726986172609031E-004;
2.426500000000000E+009;1.563248932361603E-001;-1.185276135802269E-001;4.264882765710354E-003;8.233391563408077E-004;
2.426666666666667E+009;1.564375609159470E-001;-1.186065524816513E-001;4.276075866073370E-003;6.293009500950575E-004;
2.426833333333334E+009;1.561608612537384E-001;-1.188849881291390E-001;4.281000234186649E-003;3.960340109188110E-004;
2.427000000000000E+009;1.559668928384781E-001;-1.191153004765511E-001;4.155967850238085E-003;4.013612051494420E-004;
2.427166666666667E+009;1.555092483758926E-001;-1.190806552767754E-001;4.317590501159430E-003;-9.246820991393179E-005;
2.427333333333334E+009;1.550550609827042E-001;-1.191908195614815E-001;4.350817296653986E-003;-1.395055151078850E-004;
2.427500000000000E+009;1.546297222375870E-001;-1.192886382341385E-001;4.431880544871092E-003;-2.400373632553965E-004;
2.427666666666667E+009;1.539273858070374E-001;-1.195134148001671E-001;4.312804434448481E-003;-4.101825179532170E-004;
