# Version 1.00
#
freq[Hz];re:Trc1_S11;im:Trc1_S11;re:Trc2_S21;im:Trc2_S21;
2.400000000000000E+009;1.583423316478729E-001;6.217511743307114E-002;1.860349555499852E-003;-2.152837812900543E-003;
2.400166666666667E+009;1.582338511943817E-001;6.081203371286392E-002;1.940602669492364E-003;-2.143637975677848E-003;
2.400333333333334E+009;1.579748988151550E-001;5.890332162380219E-002;1.961875706911087E-003;-2.196193672716618E-003;
2.400500000000000E+009;1.581444442272186E-001;5.699038133025169E-002;1.784294960089028E-003;-2.375516574829817E-003;
2.400666666666667E+009;1.580108404159546E-001;5.501485615968704E-002;1.738272840157151E-003;-2.542128320783377E-003;
2.400833333333334E+009;1.580884307622910E-001;5.313309654593468E-002;1.917321933433414E-003;-2.427747473120689E-003;
2.401000000000000E+009;1.583061069250107E-001;5.101816728711128E-002;1.864763209596276E-003;-2.813794184476137E-003;
2.401166666666667E+009;1.583296209573746E-001;4.897758737206459E-002;1.830430352129042E-003;-2.885373309254646E-003;
2.401333333333334E+009;1.585090607404709E-001;4.680584743618965E-002;1.686316565610468E-003;-3.047337988391519E-003;
2.401500000000000E+009;1.587922722101212E-001;4.481083527207375E-002;1.797441160306335E-003;-3.211332717910409E-003;
2.401666666666667E+009;1.591910868883133E-001;4.299596697092056E-002;1.753773074597120E-003;-2.997965784743428E-003;
2.401833333333334E+009;1.596578359603882E-001;4.089195281267166E-002;1.442964188754559E-003;-3.399607259780169E-003;
2.402000000000000E+009;1.599045097827911E-001;3.886545822024345E-002;1.515116309747100E-003;-3.547133179381490E-003;
2.402166666666667E+009;1.604901850223541E-001;3.682905063033104E-002;1.326275640167296E-003;-3.782172454521060E-003;
2.402333333333334E+009;1.608399301767349E-001;3.511995077133179E-002;1.294273417443037E-003;-3.909972961992025E-003;
2.402500000000000E+009;1.618387997150421E-001;3.333049267530441E-002;1.026552054099739E-003;-4.095304291695356E-003;
2.402666666666667E+009;1.622821986675263E-001;3.146275505423546E-002;9.615883463993669E-004;-4.174920730292797E-003;
2.402833333333334E+009;1.632088273763657E-001;2.989347837865353E-002;6.073710974305868E-004;-4.334601107984781E-003;
2.403000000000000E+009;1.638829708099365E-001;2.807289734482765E-002;5.301909986883402E-004;-4.425777588039637E-003;
2.403166666666667E+009;1.647699922323227E-001;2.658481337130070E-002;3.414014645386487E-004;-4.597097635269165E-003;
2.403333333333334E+009;1.655910909175873E-001;2.504884079098702E-002;-1.512227609055117E-004;-4.530328325927258E-003;
2.403500000000000E+009;1.665651798248291E-001;2.361868508160114E-002;-2.834760816767812E-004;-4.582590889185667E-003;
2.403666666666667E+009;1.674817800521851E-001;2.218897640705109E-002;-5.393222090788186E-004;-4.701869562268257E-003;
2.403833333333334E+009;1.686684191226959E-001;2.090478502213955E-002;-9.229994029738009E-004;-4.606093745678663E-003;
2.404000000000000E+009;1.694093793630600E-001;1.980480179190636E-002;-1.013081287965179E-003;-4.584674257785082E-003;
2.404166666666667E+009;1.703847646713257E-001;1.861482486128807E-002;-1.321897841989994E-003;-4.627258516848087E-003;
2.404333333333334E+009;1.713227033615112E-001;1.761908829212189E-002;-1.519228215329349E-003;-4.363566637039185E-003;
2.404500000000000E+009;1.721943467855454E-001;1.657303422689438E-002;-1.762137049809098E-003;-4.296684172004461E-003;
2.404666666666667E+009;1.730192005634308E-001;1.571607962250710E-002;-2.070670714601874E-003;-4.298100713640451E-003;
2.404833333333334E+009;1.741030812263489E-001;1.495487149804831E-002;-2.183075528591871E-003;-4.109088331460953E-003;
2.405000000000000E+009;1.749548912048340E-001;1.418323535472155E-002;-2.400885103270412E-003;-4.080081824213266E-003;
2.405166666666667E+009;1.758686751127243E-001;1.359256729483604E-002;-2.699959557503462E-003;-4.014828708022833E-003;
2.405333333333334E+009;1.765327155590057E-001;1.283849962055683E-002;-2.787680830806494E-003;-3.689273959025741E-003;
2.405500000000000E+009;1.772679090499878E-001;1.246290933340788E-002;-2.830160548910499E-003;-3.769617993384600E-003;
2.405666666666667E+009;1.779474020004273E-001;1.196039654314518E-002;-3.099423134699464E-003;-3.451405325904489E-003;
2.405833333333334E+009;1.784456521272659E-001;1.167801674455404E-002;-3.148544346913695E-003;-3.258470445871353E-003;
2.406000000000000E+009;1.789741516113281E-001;1.116150710731745E-002;-3.341388422995806E-003;-3.031211672350764E-003;
2.406166666666667E+009;1.795312464237213E-001;1.090723089873791E-002;-3.299240954220295E-003;-2.990331966429949E-003;
2.406333333333334E+009;1.799208372831345E-001;1.038114260882139E-002;-3.475288627669215E-003;-2.682352671399713E-003;
2.406500000000000E+009;1.800990402698517E-001;1.011569984257221E-002;-3.684815252199769E-003;-2.540439832955599E-003;
2.406666666666667E+009;1.802653670310974E-001;9.846732020378113E-003;-3.644700162112713E-003;-2.613094402477145E-003;
2.406833333333334E+009;1.807222217321396E-001;9.391658008098602E-003;-3.723210189491510E-003;-2.310427604243159E-003;
2.407000000000000E+009;1.807387769222260E-001;9.122678078711033E-003;-3.637853777036071E-003;-2.227484015747905E-003;
2.407166666666667E+009;1.808931082487106E-001;8.848183788359165E-003;-3.711137687787414E-003;-1.988590462133288E-003;
2.407333333333334E+009;1.806825101375580E-001;8.398733101785183E-003;-3.943997900933027E-003;-1.967938616871834E-003;
2.407500000000000E+009;1.804482787847519E-001;7.976121269166470E-003;-3.827719250693917E-003;-1.639932976104319E-003;
2.407666666666667E+009;1.804140061140060E-001;7.609080057591200E-003;-3.784720087423921E-003;-1.581257674843073E-003;
2.407833333333334E+009;1.799566596746445E-001;6.815049331635237E-003;-3.747909562662244E-003;-1.549972570501268E-003;
2.408000000000000E+009;1.795703023672104E-001;6.332792341709137E-003;-3.947887104004622E-003;-1.295146998018026E-003;
2.408166666666667E+009;1.792141497135162E-001;5.690026096999645E-003;-3.783221123740077E-003;-1.171219628304243E-003;
2.408333333333334E+009;1.788283884525299E-001;5.015730857849121E-003;-3.919073846191168E-003;-1.001600408926606E-003;
2.408500000000000E+009;1.782121360301971E-001;4.156574141234160E-003;-3.843278158456087E-003;-8.894182974472642E-004;
2.408666666666667E+009;1.776990592479706E-001;3.122413298115134E-003;-4.131019115447998E-003;-7.113193278200924E-004;
2.408833333333334E+009;1.768976598978043E-001;2.244341652840376E-003;-3.968882840126753E-003;-5.883657140657306E-004;
2.409000000000000E+009;1.763062626123428E-001;1.370180165395141E-003;-3.922587726265192E-003;-5.691414116881788E-004;
2.409166666666667E+009;1.755768954753876E-001;2.582563411124283E-006;-3.886677790433168E-003;-2.831430174410343E-004;
2.409333333333334E+009;1.750937253236771E-001;-1.251736888661981E-003;-3.848515683785081E-003;-2.978500560857356E-004;
2.409500000000000E+009;1.744321584701538E-001;-2.681425306946039E-003;-3.730373922735453E-003;-2.188201142416801E-005;
2.409666666666667E+009;1.735445410013199E-001;-3.913335036486387E-003;-3.835500450804830E-003;4.752362656290643E-005;
2.409833333333334E+009;1.728827059268951E-001;-5.349690560251474E-003;-3.749441821128130E-003;1.237315736943856E-004;
2.410000000000000E+009;1.723524332046509E-001;-6.796092726290226E-003;-3.862038254737854E-003;2.758182527031750E-004;
2.410166666666667E+009;1.717197597026825E-001;-8.306683972477913E-003;-3.667860059067607E-003;2.913959615398198E-004;
2.410333333333334E+009;1.709630489349365E-001;-9.880525991320610E-003;-3.677837084978819E-003;4.636841476894915E-004;
2.410500000000000E+009;1.705218106508255E-001;-1.165848225355148E-002;-3.608495462685823E-003;4.592110926751047E-004;
2.410666666666667E+009;1.698860824108124E-001;-1.364931650459766E-002;-3.612881759181619E-003;5.070150946266949E-004;
2.410833333333334E+009;1.696719378232956E-001;-1.524416450411081E-002;-3.616868518292904E-003;6.735827191732824E-004;
2.411000000000000E+009;1.690005958080292E-001;-1.725416630506516E-002;-3.564072307199240E-003;6.647086120210588E-004;
2.411166666666667E+009;1.686811149120331E-001;-1.897888258099556E-002;-3.503757063299418E-003;8.298123721033335E-004;
2.411333333333334E+009;1.684639006853104E-001;-2.097191847860813E-002;-3.587691579014063E-003;9.126441436819732E-004;
2.411500000000000E+009;1.682002693414688E-001;-2.304212376475334E-002;-3.570618806406856E-003;1.028363127261400E-003;
2.411666666666667E+009;1.682100296020508E-001;-2.476707473397255E-002;-3.708711359649897E-003;1.034760847687721E-003;
2.411833333333334E+009;1.681822985410690E-001;-2.657231315970421E-002;-3.618614282459021E-003;1.205984386615455E-003;
2.412000000000000E+009;1.680736094713211E-001;-2.865410596132278E-002;-3.600881667807698E-003;1.348188961856067E-003;
2.412166666666667E+009;1.682618260383606E-001;-3.063663095235825E-002;-3.617965616285801E-003;1.441492699086666E-003;
2.412333333333334E+009;1.686175465583801E-001;-3.238657116889954E-002;-3.486853092908859E-003;1.373865874484181E-003;
2.412500000000000E+009;1.685764789581299E-001;-3.415908664464951E-002;-3.452206961810589E-003;1.565425307489932E-003;
2.412666666666667E+009;1.689720302820206E-001;-3.644147515296936E-002;-3.457606304436922E-003;1.713989186100662E-003;
2.412833333333334E+009;1.693583726882935E-001;-3.818885609507561E-002;-3.418518230319023E-003;1.882235636003315E-003;
2.413000000000000E+009;1.697571128606796E-001;-3.985893726348877E-002;-3.225255757570267E-003;1.979719148948789E-003;
2.413166666666667E+009;1.699933707714081E-001;-4.157090932130814E-002;-3.439005929976702E-003;2.048221416771412E-003;
2.413333333333334E+009;1.704994291067123E-001;-4.332018643617630E-002;-3.397635882720351E-003;2.274631755426526E-003;
2.413500000000000E+009;1.710666865110397E-001;-4.503793269395828E-002;-3.123123897239566E-003;2.337791724130511E-003;
2.413666666666667E+009;1.716011762619019E-001;-4.664551466703415E-002;-3.176931058987975E-003;2.656188560649753E-003;
2.413833333333334E+009;1.722422540187836E-001;-4.807407408952713E-002;-3.041577758267522E-003;2.794363535940647E-003;
2.414000000000000E+009;1.725285202264786E-001;-4.944998025894165E-002;-3.050578525289893E-003;2.878702478483319E-003;
2.414166666666667E+009;1.732204407453537E-001;-5.065919831395149E-002;-2.783322706818581E-003;2.900499617680907E-003;
2.414333333333334E+009;1.737461388111115E-001;-5.208272114396095E-002;-2.570633776485920E-003;3.108827397227287E-003;
2.414500000000000E+009;1.745334863662720E-001;-5.319537967443466E-002;-2.550028497353196E-003;3.296714508906007E-003;
2.414666666666667E+009;1.748638600111008E-001;-5.413655564188957E-002;-2.503394614905119E-003;3.101594513282180E-003;
2.414833333333334E+009;1.753588169813156E-001;-5.523382499814034E-002;-2.229572739452124E-003;3.293331013992429E-003;
2.415000000000000E+009;1.756346821784973E-001;-5.600576475262642E-002;-2.099640667438507E-003;3.299796022474766E-003;
2.415166666666667E+009;1.761996746063232E-001;-5.674114823341370E-002;-1.925979857333005E-003;3.482888219878078E-003;
2.415333333333334E+009;1.766286343336105E-001;-5.769661441445351E-002;-1.824211096391082E-003;3.335588146001101E-003;
2.415500000000000E+009;1.769773960113525E-001;-5.821199342608452E-002;-1.601192867383361E-003;3.435479477047920E-003;
2.415666666666667E+009;1.771856248378754E-001;-5.852344259619713E-002;-1.559198717586696E-003;3.517683362588286E-003;
2.415833333333334E+009;1.773976236581802E-001;-5.913060158491135E-002;-1.398575492203236E-003;3.503429703414440E-003;
2.416000000000000E+009;1.773859560489655E-001;-5.957701057195664E-002;-1.406206632964313E-003;3.550995141267777E-003;
2.416166666666667E+009;1.776310205459595E-001;-6.000000983476639E-002;-1.005178317427635E-003;3.610277315601707E-003;
2.416333333333334E+009;1.775501519441605E-001;-6.023612990975380E-002;-8.925732690840960E-004;3.413398284465075E-003;
2.416500000000000E+009;1.775678545236588E-001;-6.062342226505280E-002;-8.725654915906489E-004;3.536394564434886E-003;
2.416666666666667E+009;1.771370023488998E-001;-6.090028956532478E-002;-7.806312059983611E-004;3.448138246312738E-003;
2.416833333333334E+009;1.770710498094559E-001;-6.130699068307877E-002;-4.547356802504510E-004;3.527972381561995E-003;
2.417000000000000E+009;1.764428913593292E-001;-6.144238263368607E-002;-6.350748590193689E-004;3.425356000661850E-003;
2.417166666666667E+009;1.761778444051743E-001;-6.147797778248787E-002;-3.868461935780942E-004;3.374663181602955E-003;
2.417333333333334E+009;1.756562143564224E-001;-6.168152764439583E-002;-3.074528358411044E-004;3.317558206617832E-003;
2.417500000000000E+009;1.749318093061447E-001;-6.216058135032654E-002;-1.767164067132399E-004;3.408940043300390E-003;
2.417666666666667E+009;1.744056940078735E-001;-6.211307644844055E-002;-2.095613308483735E-004;3.372412407770753E-003;
2.417833333333334E+009;1.735553145408630E-001;-6.244065240025520E-002;-6.129012035671622E-005;3.347461810335517E-003;
2.418000000000000E+009;1.726533621549606E-001;-6.274061650037766E-002;2.878289706131909E-005;3.142032772302628E-003;
2.418166666666667E+009;1.717770993709564E-001;-6.298302859067917E-002;-1.125216513173655E-004;3.189069218933582E-003;
2.418333333333334E+009;1.709639877080917E-001;-6.334892660379410E-002;7.806770008755848E-005;3.162290668115020E-003;
2.418500000000000E+009;1.698562055826187E-001;-6.383616477251053E-002;1.378891756758094E-004;3.058933652937412E-003;
2.418666666666667E+009;1.687743365764618E-001;-6.429179012775421E-002;2.884634886868298E-004;3.281375626102090E-003;
2.418833333333334E+009;1.675425320863724E-001;-6.488905102014542E-002;2.846155257429928E-004;3.021790878847241E-003;
2.419000000000000E+009;1.662792265415192E-001;-6.549189984798431E-002;3.492492542136461E-004;3.065770026296377E-003;
2.419166666666667E+009;1.652574539184570E-001;-6.607642769813538E-002;3.809237095993012E-004;3.200719365850091E-003;
2.419333333333334E+009;1.638561785221100E-001;-6.666477769613266E-002;4.139154916629195E-004;2.975875511765480E-003;
2.419500000000000E+009;1.627289354801178E-001;-6.777430325746536E-002;3.714003250934184E-004;3.009911393746734E-003;
2.419666666666667E+009;1.617483794689179E-001;-6.853532046079636E-002;5.886349244974554E-004;3.037734190002084E-003;
2.419833333333334E+009;1.605024784803391E-001;-6.937297433614731E-002;6.396287353709340E-004;3.124254755675793E-003;
2.420000000000000E+009;1.593898385763168E-001;-7.049030065536499E-002;5.527094472199678E-004;3.083020681515336E-003;
2.420166666666667E+009;1.581225395202637E-001;-7.156080007553101E-002;6.842466536909342E-004;3.126440336927772E-003;
2.420333333333334E+009;1.571359485387802E-001;-7.282035797834396E-002;7.279678829945624E-004;3.036380745470524E-003;
2.420500000000000E+009;1.561017334461212E-001;-7.386209070682526E-002;8.895709761418402E-004;2.984541933983564E-003;
2.420666666666667E+009;1.552824527025223E-001;-7.523688673973084E-002;9.478255524300039E-004;3.007383085787296E-003;
2.420833333333334E+009;1.542503684759140E-001;-7.669227570295334E-002;9.236250771209598E-004;3.146335948258638E-003;
2.421000000000000E+009;1.533142030239105E-001;-7.817012071609497E-002;9.594587027095258E-004;3.080879338085651E-003;
2.421166666666667E+009;1.526224762201309E-001;-7.965809106826782E-002;1.188024412840605E-003;3.207209287211299E-003;
2.421333333333334E+009;1.519297212362289E-001;-8.117690682411194E-002;1.173793920315802E-003;3.082862589508295E-003;
2.421500000000000E+009;1.512219458818436E-001;-8.270354568958283E-002;1.235756091773510E-003;3.031212603673339E-003;
2.421666666666667E+009;1.507807075977325E-001;-8.450157195329666E-002;1.380421454086900E-003;3.106854856014252E-003;
2.421833333333334E+009;1.503218114376068E-001;-8.610443025827408E-002;1.502084312960506E-003;3.093100385740399E-003;
2.422000000000000E+009;1.498401463031769E-001;-8.771698921918869E-002;1.507400418631733E-003;3.005831968039274E-003;
2.422166666666667E+009;1.497877985239029E-001;-8.954428136348724E-002;1.620864612050355E-003;2.975749317556620E-003;
2.422333333333334E+009;1.495303064584732E-001;-9.117173403501511E-002;1.747481874190271E-003;3.245442174375057E-003;
2.422500000000000E+009;1.493010222911835E-001;-9.276647120714188E-002;1.857987721450627E-003;3.060123417526484E-003;
2.422666666666667E+009;1.491669863462448E-001;-9.456961601972580E-002;1.977705163881183E-003;3.042141441255808E-003;
2.422833333333334E+009;1.493557244539261E-001;-9.642028063535690E-002;2.019301289692521E-003;3.025682410225272E-003;
2.423000000000000E+009;1.493711024522781E-001;-9.784383326768875E-002;2.123026410117745E-003;3.078029956668615E-003;
2.423166666666667E+009;1.495986282825470E-001;-9.956600517034531E-002;2.297490602359176E-003;3.087653312832117E-003;
2.423333333333334E+009;1.498130857944489E-001;-1.010716557502747E-001;2.426568418741226E-003;2.834736369550228E-003;
2.423500000000000E+009;1.501336097717285E-001;-1.027449071407318E-001;2.435848582535982E-003;2.966074505820870E-003;
2.423666666666667E+009;1.503697484731674E-001;-1.043130010366440E-001;2.638053148984909E-003;2.852381672710180E-003;
2.423833333333334E+009;1.509144455194473E-001;-1.057708933949471E-001;2.852153265848756E-003;2.773766173049808E-003;
2.424000000000000E+009;1.513533443212509E-001;-1.069269403815270E-001;2.894251374527812E-003;2.727590966969729E-003;
2.424166666666667E+009;1.516435444355011E-001;-1.082563474774361E-001;2.984874183312058E-003;2.547193318605423E-003;
2.424333333333334E+009;1.522787362337112E-001;-1.095460280776024E-001;3.207389963790774E-003;2.568022115156055E-003;
2.424500000000000E+009;1.526228785514832E-001;-1.107460334897041E-001;3.382131457328796E-003;2.489984268322587E-003;
2.424666666666667E+009;1.532567590475082E-001;-1.116782277822495E-001;3.364316187798977E-003;2.379707060754299E-003;
2.424833333333334E+009;1.535044163465500E-001;-1.127555966377258E-001;3.532040165737271E-003;2.145754639059305E-003;
2.425000000000000E+009;1.541224867105484E-001;-1.137360036373138E-001;3.667240729555488E-003;2.181200776249170E-003;
2.425166666666667E+009;1.543464809656143E-001;-1.145782470703125E-001;3.798175137490034E-003;1.886472571641207E-003;
2.425333333333334E+009;1.549040973186493E-001;-1.153170838952065E-001;3.734697820618749E-003;1.959982560947537E-003;
2.425500000000000E+009;1.554560065269470E-001;-1.159556284546852E-001;3.869290463626385E-003;1.523268292658031E-003;
2.425666666666667E+009;1.555056422948837E-001;-1.167620345950127E-001;3.852309426292777E-003;1.534762093797326E-003;
2.425833333333334E+009;1.556739211082459E-001;-1.172026842832565E-001;4.029861651360989E-003;1.454362529329956E-003;
2.426000000000000E+009;1.559358090162277E-001;-1.176654323935509E-001;4.094102419912815E-003;1.277360017411411E-003;
2.426166666666667E+009;1.562202572822571E-001;-1.181460693478584E-001;4.139273427426815E-003;1.145836315117776E-003;
2.426333333333334E+009;1.561731249094009E-001;-1.183527261018753E-001;4.092188552021980E-003;8.996508549898863E-004;
2.426500000000000E+009;1.562916487455368E-001;-1.186777278780937E-001;4.222148563712835E-003;7.562881801277399E-004;
2.426666666666667E+009;1.563979238271713E-001;-1.186784282326698E-001;4.236365202814341E-003;6.355143850669265E-004;
2.426833333333334E+009;1.560627371072769E-001;-1.189514398574829E-001;4.381283652037382E-003;4.790300154127181E-004;
2.427000000000000E+009;1.557914614677429E-001;-1.192470937967300E-001;4.280867055058479E-003;2.617201243992895E-004;
2.427166666666667E+009;1.553973108530045E-001;-1.191499307751656E-001;4.241910763084889E-003;1.421612541889772E-004;
2.427333333333334E+009;1.549260616302490E-001;-1.192787960171700E-001;4.271078854799271E-003;-8.912703196983784E-005;
2.427500000000000E+009;1.545996516942978E-001;-1.194178462028503E-001;4.338000435382128E-003;-1.231036585522816E-004;
2.427666666666667E+009;1.537661850452423E-001;-1.195116490125656E-001;4.178222268819809E-003;-2.844560076482594E-004;
2.427833333333334E+009;1.530239135026932E-001;-1.196684092283249E-001;4.210270941257477E-003;-5.086352466605604E-004;
