# Version 1.00
#
freq[Hz];re:Trc1_S11;im:Trc1_S11;re:Trc2_S21;im:Trc2_S21;
2.400000000000000E+009;1.585164070129395E-001;6.296461075544357E-002;-3.904002020135522E-003;1.920018694363535E-004;
2.400166666666667E+009;1.581658571958542E-001;6.150529161095619E-002;-3.974517807364464E-003;3.561508783604950E-004;
2.400333333333334E+009;1.580904424190521E-001;5.962731316685677E-002;-3.980183973908424E-003;5.200764862820506E-004;
2.400500000000000E+009;1.580956876277924E-001;5.767676234245300E-002;-3.900347277522087E-003;6.658025085926056E-004;
2.400666666666667E+009;1.577892601490021E-001;5.566560104489327E-002;-3.938516136258841E-003;6.554800784215331E-004;
2.400833333333334E+009;1.579765826463699E-001;5.385740473866463E-002;-3.987974487245083E-003;6.882663001306355E-004;
2.401000000000000E+009;1.580272167921066E-001;5.174613744020462E-002;-3.873033681884408E-003;8.315554005093873E-004;
2.401166666666667E+009;1.581046134233475E-001;4.962614178657532E-002;-3.901508403941989E-003;9.991911938413978E-004;
2.401333333333334E+009;1.581111997365952E-001;4.766742512583733E-002;-3.776083467528224E-003;1.034408924169838E-003;
2.401500000000000E+009;1.586516946554184E-001;4.569080471992493E-002;-3.850552719086409E-003;1.292567816562951E-003;
2.401666666666667E+009;1.588433980941773E-001;4.368836060166359E-002;-3.725199261680245E-003;1.466216053813696E-003;
2.401833333333334E+009;1.591500043869019E-001;4.145036637783051E-002;-3.740186337381601E-003;1.381662557832897E-003;
2.402000000000000E+009;1.593845635652542E-001;3.946290165185928E-002;-3.801947925239801E-003;1.526177627965808E-003;
2.402166666666667E+009;1.600094884634018E-001;3.720609098672867E-002;-3.798431018367410E-003;1.676055951975286E-003;
2.402333333333334E+009;1.604543924331665E-001;3.552617505192757E-002;-3.688042284920812E-003;1.802004058845341E-003;
2.402500000000000E+009;1.612435579299927E-001;3.362593799829483E-002;-3.516496391966939E-003;1.995855243876576E-003;
2.402666666666667E+009;1.617579609155655E-001;3.188241273164749E-002;-3.673971164971590E-003;2.034653211012483E-003;
2.402833333333334E+009;1.625089049339294E-001;3.023924306035042E-002;-3.678759559988976E-003;2.213147468864918E-003;
2.403000000000000E+009;1.635663062334061E-001;2.846799790859222E-002;-3.481589723378420E-003;2.456256188452244E-003;
2.403166666666667E+009;1.644802987575531E-001;2.675204910337925E-002;-3.426519688218832E-003;2.444726647809148E-003;
2.403333333333334E+009;1.652061343193054E-001;2.527346834540367E-002;-3.290709573775530E-003;2.693980932235718E-003;
2.403500000000000E+009;1.662202328443527E-001;2.388142980635166E-002;-3.263665130361915E-003;2.976341871544719E-003;
2.403666666666667E+009;1.671393513679504E-001;2.228527888655663E-002;-3.169249510392547E-003;3.033241489902139E-003;
2.403833333333334E+009;1.681460142135620E-001;2.101475186645985E-002;-2.913989126682282E-003;3.115293802693486E-003;
2.404000000000000E+009;1.691239476203919E-001;1.964252069592476E-002;-2.843671943992376E-003;3.283392405137420E-003;
2.404166666666667E+009;1.698558926582336E-001;1.849943958222866E-002;-2.918674610555172E-003;3.361840266734362E-003;
2.404333333333334E+009;1.710335612297058E-001;1.756401173770428E-002;-2.847243566066027E-003;3.503301646560431E-003;
2.404500000000000E+009;1.719851940870285E-001;1.662801392376423E-002;-2.597686601802707E-003;3.585096448659897E-003;
2.404666666666667E+009;1.729304194450378E-001;1.558388769626617E-002;-2.366368891671300E-003;3.611384192481637E-003;
2.404833333333334E+009;1.740343421697617E-001;1.458830758929253E-002;-2.287481212988496E-003;3.813559887930751E-003;
2.405000000000000E+009;1.748686730861664E-001;1.392789185047150E-002;-1.934234984219074E-003;3.832102753221989E-003;
2.405166666666667E+009;1.757435649633408E-001;1.332720089703798E-002;-1.812365837395191E-003;3.949371166527271E-003;
2.405333333333334E+009;1.767023056745529E-001;1.241696905344725E-002;-1.852675341069698E-003;4.178816918283701E-003;
2.405500000000000E+009;1.774156093597412E-001;1.208196301013231E-002;-1.457117497920990E-003;4.270477686077356E-003;
2.405666666666667E+009;1.781539767980576E-001;1.147565804421902E-002;-1.316671608947218E-003;4.037330392748117E-003;
2.405833333333334E+009;1.785151213407517E-001;1.110226009041071E-002;-1.315234461799264E-003;4.257541149854660E-003;
2.406000000000000E+009;1.793809235095978E-001;1.054785121232271E-002;-1.045110751874745E-003;4.251421429216862E-003;
2.406166666666667E+009;1.797097772359848E-001;1.038278266787529E-002;-6.690982845611870E-004;4.424036946147680E-003;
2.406333333333334E+009;1.802811026573181E-001;9.911287575960159E-003;-5.241577746346593E-004;4.445680417120457E-003;
2.406500000000000E+009;1.806643903255463E-001;9.636363014578819E-003;-3.409235796425492E-004;4.409951157867909E-003;
2.406666666666667E+009;1.806650161743164E-001;9.398106485605240E-003;-1.159929379355162E-004;4.439144395291805E-003;
2.406833333333334E+009;1.810093671083450E-001;8.964082226157188E-003;2.683147158677457E-006;4.386163316667080E-003;
2.407000000000000E+009;1.810505539178848E-001;8.520772680640221E-003;2.606659254524857E-004;4.460330121219158E-003;
2.407166666666667E+009;1.811755001544952E-001;8.292654529213905E-003;5.483074346557260E-004;4.437607713043690E-003;
2.407333333333334E+009;1.810492426156998E-001;7.905395701527596E-003;8.850577869452536E-004;4.263792652636766E-003;
2.407500000000000E+009;1.809349060058594E-001;7.543380372226238E-003;1.190573442727327E-003;4.054617136716843E-003;
2.407666666666667E+009;1.808286905288696E-001;7.172689307481051E-003;1.019854331389070E-003;4.155243281275034E-003;
2.407833333333334E+009;1.802307516336441E-001;6.565754301846027E-003;1.488863723352552E-003;3.933201543986797E-003;
2.408000000000000E+009;1.799921244382858E-001;5.981385242193937E-003;1.384471659548581E-003;3.902911674231291E-003;
2.408166666666667E+009;1.797242611646652E-001;5.616007838398218E-003;1.598690520040691E-003;3.775206161662936E-003;
2.408333333333334E+009;1.792322397232056E-001;4.814466461539269E-003;1.725441892631352E-003;3.635199973359704E-003;
2.408500000000000E+009;1.785501837730408E-001;3.872687229886651E-003;1.868487917818129E-003;3.664850257337093E-003;
2.408666666666667E+009;1.780823469161987E-001;3.183258930221200E-003;1.939945039339364E-003;3.420036984607577E-003;
2.408833333333334E+009;1.772928237915039E-001;2.342693973332644E-003;2.154804300516844E-003;3.221110207960010E-003;
2.409000000000000E+009;1.767247319221497E-001;1.366827636957169E-003;2.282115630805492E-003;3.158338833600283E-003;
2.409166666666667E+009;1.758994013071060E-001;1.968956348719075E-004;2.267886651679874E-003;2.949462737888098E-003;
2.409333333333334E+009;1.753693819046021E-001;-9.672974701970816E-004;2.411114517599344E-003;2.838614862412214E-003;
2.409500000000000E+009;1.746053397655487E-001;-2.365417778491974E-003;2.535520819947124E-003;2.761181909590960E-003;
2.409666666666667E+009;1.738350093364716E-001;-3.514224430546165E-003;2.509744605049491E-003;2.619501203298569E-003;
2.409833333333334E+009;1.732247322797775E-001;-4.840829875320196E-003;2.616519806906581E-003;2.400749130174518E-003;
2.410000000000000E+009;1.725251674652100E-001;-6.467029452323914E-003;2.651957795023918E-003;2.269445452839136E-003;
2.410166666666667E+009;1.718329787254334E-001;-7.896299473941326E-003;2.777568763121963E-003;2.187712350860238E-003;
2.410333333333334E+009;1.710729002952576E-001;-9.401564486324787E-003;2.722197910770774E-003;2.119074808433652E-003;
2.410500000000000E+009;1.705255955457687E-001;-1.116301678121090E-002;2.676799660548568E-003;1.989850075915456E-003;
2.410666666666667E+009;1.700137853622437E-001;-1.297636982053518E-002;2.880359534174204E-003;1.626258948817849E-003;
2.410833333333334E+009;1.696482300758362E-001;-1.452393084764481E-002;2.818313194438815E-003;1.779993763193488E-003;
2.411000000000000E+009;1.691170930862427E-001;-1.642985269427300E-002;2.921208506450057E-003;1.546341227367520E-003;
2.411166666666667E+009;1.686287820339203E-001;-1.823984086513519E-002;2.921782666817308E-003;1.401990419253707E-003;
2.411333333333334E+009;1.685152798891068E-001;-2.026480995118618E-002;2.759782131761313E-003;1.268185907974839E-003;
2.411500000000000E+009;1.682280302047730E-001;-2.232827991247177E-002;3.038148162886500E-003;1.087848562747240E-003;
2.411666666666667E+009;1.680534034967423E-001;-2.421364933252335E-002;2.921218750998378E-003;1.079513342119753E-003;
2.411833333333334E+009;1.679314374923706E-001;-2.602750994265080E-002;3.073122585192323E-003;8.915208745747805E-004;
2.412000000000000E+009;1.680215746164322E-001;-2.800922095775604E-002;2.982050646096468E-003;6.888127536512911E-004;
2.412166666666667E+009;1.679547429084778E-001;-2.995550632476807E-002;2.871087985113263E-003;7.277542608790100E-004;
2.412333333333334E+009;1.683346629142761E-001;-3.185706958174706E-002;2.836684230715036E-003;3.691140445880592E-004;
2.412500000000000E+009;1.681972593069077E-001;-3.368404507637024E-002;2.839821157976985E-003;3.116533916909248E-004;
2.412666666666667E+009;1.686902791261673E-001;-3.581323847174645E-002;2.708958461880684E-003;2.089373447233811E-004;
2.412833333333334E+009;1.689312607049942E-001;-3.761425241827965E-002;2.716348506510258E-003;2.117354451911524E-004;
2.413000000000000E+009;1.693276762962341E-001;-3.947007283568382E-002;2.533266320824623E-003;5.994359162286855E-005;
2.413166666666667E+009;1.695789992809296E-001;-4.117003083229065E-002;2.743030199781060E-003;-7.680360431550071E-005;
2.413333333333334E+009;1.700640022754669E-001;-4.291187599301338E-002;2.481932053342462E-003;-1.391860860167071E-004;
2.413500000000000E+009;1.705256104469299E-001;-4.443319886922836E-002;2.523941453546286E-003;-3.009896317962557E-004;
2.413666666666667E+009;1.711581051349640E-001;-4.618538543581963E-002;2.380145946517587E-003;-5.050128092989326E-004;
2.413833333333334E+009;1.714402139186859E-001;-4.760264977812767E-002;2.434827852994204E-003;-4.730544169433415E-004;
2.414000000000000E+009;1.719868779182434E-001;-4.923619702458382E-002;2.383046317845583E-003;-6.473126704804599E-004;
2.414166666666667E+009;1.727324575185776E-001;-5.034907534718514E-002;2.186350990086794E-003;-5.987671320326626E-004;
2.414333333333334E+009;1.733271032571793E-001;-5.166210979223251E-002;2.035953802987933E-003;-7.652744534425438E-004;
2.414500000000000E+009;1.739652007818222E-001;-5.290785804390907E-002;2.039555693045259E-003;-6.526962970383465E-004;
2.414666666666667E+009;1.745415031909943E-001;-5.393911898136139E-002;1.875351066701114E-003;-8.033578051254153E-004;
2.414833333333334E+009;1.748509556055069E-001;-5.487568676471710E-002;1.895311870612204E-003;-7.989634177647531E-004;
2.415000000000000E+009;1.753478497266769E-001;-5.582955107092857E-002;1.665329677052796E-003;-8.361983927898109E-004;
2.415166666666667E+009;1.758023202419281E-001;-5.670391023159027E-002;1.766339992173016E-003;-9.024292230606079E-004;
2.415333333333334E+009;1.763098388910294E-001;-5.748318508267403E-002;1.638276502490044E-003;-7.979416404850781E-004;
2.415500000000000E+009;1.766203194856644E-001;-5.801935121417046E-002;1.572596724145114E-003;-8.505795267410576E-004;
2.415666666666667E+009;1.768471151590347E-001;-5.865447968244553E-002;1.490524387918413E-003;-8.587289485149086E-004;
2.415833333333334E+009;1.771951466798782E-001;-5.919836089015007E-002;1.357491593807936E-003;-8.821167284622788E-004;
2.416000000000000E+009;1.773240566253662E-001;-5.963104590773583E-002;1.470134360715747E-003;-9.646757389418781E-004;
2.416166666666667E+009;1.774923950433731E-001;-6.006511300802231E-002;1.300356932915747E-003;-9.564927895553410E-004;
2.416333333333334E+009;1.775271296501160E-001;-6.033917143940926E-002;1.358498469926417E-003;-9.510950185358524E-004;
2.416500000000000E+009;1.774377673864365E-001;-6.070567667484283E-002;1.238997210748494E-003;-1.007828279398382E-003;
2.416666666666667E+009;1.772907823324204E-001;-6.084956601262093E-002;1.292237779125571E-003;-9.610923007130623E-004;
2.416833333333334E+009;1.771437674760819E-001;-6.134894117712975E-002;1.132389297708869E-003;-9.675532928667963E-004;
2.417000000000000E+009;1.766193956136704E-001;-6.144095584750176E-002;1.244466286152601E-003;-8.991374052129686E-004;
2.417166666666667E+009;1.761902719736099E-001;-6.167116016149521E-002;1.030018087476492E-003;-8.884727722033858E-004;
2.417333333333334E+009;1.757539361715317E-001;-6.177652999758720E-002;1.117661944590509E-003;-1.029889332130551E-003;
2.417500000000000E+009;1.751607805490494E-001;-6.221908703446388E-002;9.326460422016680E-004;-9.480154840275645E-004;
2.417666666666667E+009;1.746291518211365E-001;-6.237201020121574E-002;1.032240572385490E-003;-9.031559457071126E-004;
2.417833333333334E+009;1.737996190786362E-001;-6.252776086330414E-002;9.346018196083605E-004;-9.359936811961234E-004;
2.418000000000000E+009;1.730044037103653E-001;-6.295708566904068E-002;1.023091259412468E-003;-1.044811564497650E-003;
2.418166666666667E+009;1.719732433557510E-001;-6.290619820356369E-002;8.660550811327994E-004;-9.318835800513625E-004;
2.418333333333334E+009;1.712229400873184E-001;-6.355246901512146E-002;8.324715890921652E-004;-1.140989712439477E-003;
2.418500000000000E+009;1.702087968587875E-001;-6.385713815689087E-002;8.127818000502884E-004;-1.082665054127574E-003;
2.418666666666667E+009;1.692032217979431E-001;-6.444292515516281E-002;7.200696854852140E-004;-1.030545099638403E-003;
2.418833333333334E+009;1.679140925407410E-001;-6.497689336538315E-002;7.735991384834051E-004;-9.580272599123418E-004;
2.419000000000000E+009;1.667294502258301E-001;-6.532859057188034E-002;6.678995559923351E-004;-1.028875587508082E-003;
2.419166666666667E+009;1.656823605298996E-001;-6.620110571384430E-002;6.242315284907818E-004;-1.017508446238935E-003;
2.419333333333334E+009;1.642715781927109E-001;-6.652376055717468E-002;5.982430884614587E-004;-9.959938470274210E-004;
2.419500000000000E+009;1.632179468870163E-001;-6.749714165925980E-002;4.962368984706700E-004;-1.080958172678947E-003;
2.419666666666667E+009;1.621378809213638E-001;-6.845720857381821E-002;4.776295681949705E-004;-1.111072604544461E-003;
2.419833333333334E+009;1.609406173229218E-001;-6.915841996669769E-002;3.689638397190720E-004;-1.023509772494435E-003;
2.420000000000000E+009;1.597476005554199E-001;-7.024709135293961E-002;4.256418615113944E-004;-1.017700531519949E-003;
2.420166666666667E+009;1.585612148046494E-001;-7.135380059480667E-002;3.731510951183736E-004;-9.673749445937574E-004;
2.420333333333334E+009;1.575973182916641E-001;-7.271039485931397E-002;3.247460699640214E-004;-1.042904215864837E-003;
2.420500000000000E+009;1.564700007438660E-001;-7.371657341718674E-002;3.330884210299701E-004;-9.864928433671594E-004;
2.420666666666667E+009;1.554861664772034E-001;-7.483547925949097E-002;1.414884172845632E-004;-1.070077181793749E-003;
2.420833333333334E+009;1.545708924531937E-001;-7.641223073005676E-002;2.652450930327177E-004;-9.642288787290454E-004;
2.421000000000000E+009;1.536708176136017E-001;-7.786843925714493E-002;4.311024531489238E-005;-8.821443188935518E-004;
2.421166666666667E+009;1.527631431818008E-001;-7.930120080709457E-002;2.345597567909863E-005;-8.846209966577590E-004;
2.421333333333334E+009;1.522585898637772E-001;-8.084395527839661E-002;6.361864052450983E-006;-7.811034447513521E-004;
2.421500000000000E+009;1.514175087213516E-001;-8.246727287769318E-002;7.066860416671261E-005;-7.569725275970995E-004;
2.421666666666667E+009;1.508340239524841E-001;-8.399210870265961E-002;6.168995605548844E-005;-6.792331114411354E-004;
2.421833333333334E+009;1.504339277744293E-001;-8.567841351032257E-002;1.506213538959855E-005;-8.856388740241528E-004;
2.422000000000000E+009;1.499206721782684E-001;-8.736226707696915E-002;-1.871665590442717E-004;-6.440677680075169E-004;
2.422166666666667E+009;1.495662331581116E-001;-8.922607451677322E-002;-8.968353358795866E-005;-6.928012589924038E-004;
2.422333333333334E+009;1.494645476341248E-001;-9.073210507631302E-002;-1.163506167358719E-004;-5.436356295831502E-004;
2.422500000000000E+009;1.492602974176407E-001;-9.245330840349197E-002;-1.117771462304518E-004;-4.868425021413714E-004;
2.422666666666667E+009;1.492291539907455E-001;-9.406002610921860E-002;-6.180173659231514E-005;-4.181382537353784E-004;
2.422833333333334E+009;1.492992043495178E-001;-9.596038609743118E-002;9.748878255777527E-007;-4.095868789590895E-004;
2.423000000000000E+009;1.492103189229965E-001;-9.750752896070480E-002;-1.260058411389764E-006;-4.140681994613260E-004;
2.423166666666667E+009;1.496622413396835E-001;-9.922353178262711E-002;-5.525161031982862E-005;-2.810398873407394E-004;
2.423333333333334E+009;1.499053239822388E-001;-1.007706895470619E-001;1.103765389416367E-004;-1.505831896793097E-004;
2.423500000000000E+009;1.500250697135925E-001;-1.023235693573952E-001;-1.844679063651711E-004;-1.764429325703532E-004;
2.423666666666667E+009;1.501309871673584E-001;-1.039225235581398E-001;5.763784793089144E-005;-1.640068221604452E-004;
2.423833333333334E+009;1.508091092109680E-001;-1.053823456168175E-001;1.970348530448973E-004;-1.793162664398551E-004;
2.424000000000000E+009;1.511211097240448E-001;-1.066342815756798E-001;2.754041342996061E-004;-1.547960710013285E-004;
2.424166666666667E+009;1.515852510929108E-001;-1.081320345401764E-001;1.771982642821968E-004;-1.009760235319845E-004;
2.424333333333334E+009;1.521027088165283E-001;-1.091417521238327E-001;3.384483861736953E-004;8.133065421134234E-006;
2.424500000000000E+009;1.525179296731949E-001;-1.104437559843063E-001;4.358916194178164E-004;-5.248234447208233E-005;
2.424666666666667E+009;1.532398760318756E-001;-1.114054545760155E-001;2.322208893019706E-004;5.382216113503091E-005;
2.424833333333334E+009;1.535749137401581E-001;-1.124966144561768E-001;3.918937291018665E-004;-8.137729309964925E-005;
2.425000000000000E+009;1.540776044130325E-001;-1.135602518916130E-001;4.196594818495214E-004;1.211398048326373E-004;
2.425166666666667E+009;1.542531549930573E-001;-1.143159940838814E-001;5.151955992914736E-004;-1.727782073430717E-004;
2.425333333333334E+009;1.547700613737106E-001;-1.152008771896362E-001;5.925268051214516E-004;-4.039763007313013E-005;
2.425500000000000E+009;1.552676409482956E-001;-1.158050745725632E-001;7.417296874336898E-004;-1.422803470632061E-004;
2.425666666666667E+009;1.554342210292816E-001;-1.165678203105927E-001;6.577175809070468E-004;7.811962859705091E-005;
2.425833333333334E+009;1.557952612638474E-001;-1.169763207435608E-001;7.752850651741028E-004;-7.488823757739738E-005;
2.426000000000000E+009;1.558751463890076E-001;-1.175469681620598E-001;8.410398149862886E-004;-9.638089250074700E-005;
2.426166666666667E+009;1.563213318586350E-001;-1.180960759520531E-001;8.505164878442884E-004;-1.189421236631461E-004;
2.426333333333334E+009;1.562260687351227E-001;-1.183532476425171E-001;6.011656369082630E-004;-1.987445575650781E-004;
2.426500000000000E+009;1.563733220100403E-001;-1.185722500085831E-001;6.746958824805915E-004;-2.461989060975611E-004;
2.426666666666667E+009;1.564086824655533E-001;-1.187804788351059E-001;8.042951230891049E-004;-3.436064871493727E-004;
2.426833333333334E+009;1.561862826347351E-001;-1.189979836344719E-001;9.108345257118344E-004;-4.236536915414035E-004;
2.427000000000000E+009;1.558894664049149E-001;-1.192216947674751E-001;9.664312819950283E-004;-3.170906275045127E-004;
2.427166666666667E+009;1.555600464344025E-001;-1.191707327961922E-001;8.546225726604462E-004;-5.181224551051855E-004;
2.427333333333334E+009;1.550284475088120E-001;-1.193293184041977E-001;1.064387150108814E-003;-5.774023593403399E-004;
2.427500000000000E+009;1.545625925064087E-001;-1.195391193032265E-001;8.928744937293232E-004;-4.369240778032690E-004;
2.427666666666667E+009;1.539056301116943E-001;-1.195669323205948E-001;8.659313898533583E-004;-5.972433718852699E-004;
2.427833333333334E+009;1.530672907829285E-001;-1.196374520659447E-001;8.941257256083190E-004;-4.962496459484100E-004;
