# Version 1.00
#
freq[Hz];re:Trc1_S11;im:Trc1_S11;re:Trc2_S21;im:Trc2_S21;
2.400000000000000E+009;1.584033668041229E-001;6.301133334636688E-002;-3.767346031963825E-003;2.061284758383408E-004;
2.400166666666667E+009;1.581825017929077E-001;6.154334917664528E-002;-3.874038811773062E-003;3.081461472902447E-004;
2.400333333333334E+009;1.579352766275406E-001;5.964733660221100E-002;-3.908113110810518E-003;3.948618832509965E-004;
2.400500000000000E+009;1.578574925661087E-001;5.780614912509918E-002;-3.831692039966583E-003;7.103646057657898E-004;
2.400666666666667E+009;1.576502919197083E-001;5.577578768134117E-002;-3.726811613887548E-003;5.820333026349545E-004;
2.400833333333334E+009;1.578971296548843E-001;5.413673073053360E-002;-3.714549355208874E-003;7.249156478792429E-004;
2.401000000000000E+009;1.580003798007965E-001;5.182306468486786E-002;-3.725282382220030E-003;6.877401610836387E-004;
2.401166666666667E+009;1.581223607063294E-001;4.975813254714012E-002;-3.665701486170292E-003;9.538649464957416E-004;
2.401333333333334E+009;1.580286920070648E-001;4.754980653524399E-002;-3.944104071706533E-003;9.507627692073584E-004;
2.401500000000000E+009;1.584398299455643E-001;4.562407359480858E-002;-3.865357721224427E-003;1.091869198717177E-003;
2.401666666666667E+009;1.586119681596756E-001;4.368691518902779E-002;-3.748663235455751E-003;1.240174053236842E-003;
2.401833333333334E+009;1.590819954872131E-001;4.163587465882301E-002;-3.836989635601640E-003;1.327474485151470E-003;
2.402000000000000E+009;1.595519036054611E-001;3.961031511425972E-002;-3.646888770163059E-003;1.583220669999719E-003;
2.402166666666667E+009;1.599336266517639E-001;3.745160624384880E-002;-3.566356142982841E-003;1.739812199957669E-003;
2.402333333333334E+009;1.604967564344406E-001;3.555537387728691E-002;-3.763284999877214E-003;1.790267881006002E-003;
2.402500000000000E+009;1.612949818372726E-001;3.360883891582489E-002;-3.707021242007613E-003;1.835290575399995E-003;
2.402666666666667E+009;1.620509028434753E-001;3.196299448609352E-002;-3.523306222632527E-003;2.004839014261961E-003;
2.402833333333334E+009;1.624992340803146E-001;3.013416379690170E-002;-3.586611477658153E-003;2.111335983499885E-003;
2.403000000000000E+009;1.634540408849716E-001;2.832850068807602E-002;-3.503558225929737E-003;2.311146119609475E-003;
2.403166666666667E+009;1.644112020730972E-001;2.693712152540684E-002;-3.460996085777879E-003;2.433113753795624E-003;
2.403333333333334E+009;1.651679128408432E-001;2.541846781969070E-002;-3.470937488600612E-003;2.637880621477962E-003;
2.403500000000000E+009;1.660901010036469E-001;2.365713380277157E-002;-3.113455371931195E-003;2.816774649545550E-003;
2.403666666666667E+009;1.670368313789368E-001;2.224228531122208E-002;-3.203706117346883E-003;2.696745563298464E-003;
2.403833333333334E+009;1.682045310735703E-001;2.099290862679482E-002;-3.151593729853630E-003;2.867956645786762E-003;
2.404000000000000E+009;1.691421866416931E-001;1.977126859128475E-002;-2.931155962869525E-003;3.126726951450110E-003;
2.404166666666667E+009;1.701909303665161E-001;1.852884329855442E-002;-2.844022121280432E-003;3.377937711775303E-003;
2.404333333333334E+009;1.710865795612335E-001;1.762184500694275E-002;-2.678828779608011E-003;3.564793616533279E-003;
2.404500000000000E+009;1.718412190675736E-001;1.641757600009441E-002;-2.457221271470189E-003;3.592311404645443E-003;
2.404666666666667E+009;1.729362308979034E-001;1.546055823564529E-002;-2.344945445656776E-003;3.667186014354229E-003;
2.404833333333334E+009;1.739015728235245E-001;1.470154337584972E-002;-2.265192335471511E-003;3.852145979180932E-003;
2.405000000000000E+009;1.747977733612061E-001;1.386711187660694E-002;-2.055010758340359E-003;3.947250545024872E-003;
2.405166666666667E+009;1.757343113422394E-001;1.318193413317204E-002;-1.850251457653940E-003;3.918086178600788E-003;
2.405333333333334E+009;1.766393035650253E-001;1.237829308956862E-002;-1.714092795737088E-003;4.128582775592804E-003;
2.405500000000000E+009;1.772336959838867E-001;1.195853482931852E-002;-1.533316331915557E-003;4.232644569128752E-003;
2.405666666666667E+009;1.778646856546402E-001;1.151547394692898E-002;-1.462580170482397E-003;4.383774474263191E-003;
2.405833333333334E+009;1.785691827535629E-001;1.113177463412285E-002;-1.219799858517945E-003;4.413441289216280E-003;
2.406000000000000E+009;1.792618185281754E-001;1.066490449011326E-002;-8.850560407154262E-004;4.191683139652014E-003;
2.406166666666667E+009;1.796663403511047E-001;1.046206802129746E-002;-7.976008346304297E-004;4.401373211294413E-003;
2.406333333333334E+009;1.801860928535461E-001;1.009102072566748E-002;-4.600257088895887E-004;4.457458388060331E-003;
2.406500000000000E+009;1.804655045270920E-001;9.765394032001495E-003;-2.837047213688493E-004;4.448192194104195E-003;
2.406666666666667E+009;1.805956512689591E-001;9.503621608018875E-003;-3.787664536503144E-005;4.498215392231941E-003;
2.406833333333334E+009;1.809289902448654E-001;9.009998291730881E-003;4.480014467844740E-005;4.488501697778702E-003;
2.407000000000000E+009;1.811603307723999E-001;8.675343357026577E-003;2.285178488818929E-004;4.248609766364098E-003;
2.407166666666667E+009;1.811237633228302E-001;8.476514369249344E-003;5.525196320377290E-004;4.261225927621126E-003;
2.407333333333334E+009;1.810379028320313E-001;7.945233955979347E-003;7.179157692007721E-004;4.334056284278631E-003;
2.407500000000000E+009;1.808931231498718E-001;7.670010905712843E-003;1.036726287566125E-003;4.209470003843308E-003;
2.407666666666667E+009;1.807758808135986E-001;7.325315382331610E-003;1.135043450631201E-003;4.057545214891434E-003;
2.407833333333334E+009;1.802442818880081E-001;6.708345841616392E-003;1.374180545099080E-003;3.987354226410389E-003;
2.408000000000000E+009;1.800155788660049E-001;5.901589058339596E-003;1.339635928161442E-003;3.982180729508400E-003;
2.408166666666667E+009;1.795673072338104E-001;5.643196403980255E-003;1.462875399738550E-003;3.761498490348458E-003;
2.408333333333334E+009;1.793509274721146E-001;4.777486436069012E-003;1.681296504102647E-003;3.736958838999271E-003;
2.408500000000000E+009;1.787001043558121E-001;4.061622079461813E-003;1.814238610677421E-003;3.534769406542182E-003;
2.408666666666667E+009;1.780582666397095E-001;3.121502464637160E-003;1.963498769327998E-003;3.236490068957210E-003;
2.408833333333334E+009;1.773320287466049E-001;2.340737730264664E-003;2.112605841830373E-003;3.258785931393504E-003;
2.409000000000000E+009;1.766606271266937E-001;1.395965344272554E-003;2.170610008761287E-003;3.117426997050643E-003;
2.409166666666667E+009;1.760467141866684E-001;5.675150168826804E-005;2.413957845419645E-003;2.927006222307682E-003;
2.409333333333334E+009;1.754690706729889E-001;-9.251617593690753E-004;2.302407752722502E-003;2.729575382545590E-003;
2.409500000000000E+009;1.746392101049423E-001;-2.294299658387899E-003;2.412204165011644E-003;2.634632401168346E-003;
2.409666666666667E+009;1.739145815372467E-001;-3.629948245361447E-003;2.526488853618503E-003;2.657806500792503E-003;
2.409833333333334E+009;1.731685698032379E-001;-4.876459017395973E-003;2.546093426644802E-003;2.551064360886812E-003;
2.410000000000000E+009;1.723866015672684E-001;-6.207499653100967E-003;2.551135141402483E-003;2.320814877748489E-003;
2.410166666666667E+009;1.718422472476959E-001;-7.846921682357788E-003;2.625252353027463E-003;2.162481890991330E-003;
2.410333333333334E+009;1.710385978221893E-001;-9.394189342856407E-003;2.702817087993026E-003;2.026393776759505E-003;
2.410500000000000E+009;1.705829948186874E-001;-1.100515108555555E-002;2.800443442538381E-003;2.003477886319161E-003;
2.410666666666667E+009;1.699794828891754E-001;-1.298210583627224E-002;2.819414017722011E-003;1.789143658243120E-003;
2.410833333333334E+009;1.694553345441818E-001;-1.472597382962704E-002;2.807136625051498E-003;1.608400372788310E-003;
2.411000000000000E+009;1.691133677959442E-001;-1.633263193070889E-002;2.769300946965814E-003;1.562463934533298E-003;
2.411166666666667E+009;1.688306331634522E-001;-1.844698749482632E-002;2.879013540223241E-003;1.476515433751047E-003;
2.411333333333334E+009;1.682711839675903E-001;-2.018458023667336E-002;2.980345394462347E-003;1.149655319750309E-003;
2.411500000000000E+009;1.680813133716583E-001;-2.214838378131390E-002;2.945248736068606E-003;9.502578177489340E-004;
2.411666666666667E+009;1.680417507886887E-001;-2.405979670584202E-002;3.068406833335757E-003;9.945069905370474E-004;
2.411833333333334E+009;1.679303050041199E-001;-2.616672217845917E-002;2.850999124348164E-003;9.023367310874164E-004;
2.412000000000000E+009;1.680496335029602E-001;-2.794661559164524E-002;2.889126772060990E-003;7.208525203168392E-004;
2.412166666666667E+009;1.677943766117096E-001;-2.997629158198834E-002;2.829454606398940E-003;6.004647002555430E-004;
2.412333333333334E+009;1.681236475706101E-001;-3.183882310986519E-002;2.816179301589727E-003;4.655773809645325E-004;
2.412500000000000E+009;1.681669652462006E-001;-3.378394991159439E-002;2.792390761896968E-003;4.534463805612177E-004;
2.412666666666667E+009;1.686742305755615E-001;-3.578582033514977E-002;2.817235887050629E-003;2.340946812182665E-004;
2.412833333333334E+009;1.690127104520798E-001;-3.775836154818535E-002;2.812668215483427E-003;1.671319332672283E-004;
2.413000000000000E+009;1.692264825105667E-001;-3.935977444052696E-002;2.636019606143236E-003;-2.267299350933172E-005;
2.413166666666667E+009;1.694906949996948E-001;-4.118698835372925E-002;2.525474876165390E-003;-1.564718113513663E-004;
2.413333333333334E+009;1.699648350477219E-001;-4.302021488547325E-002;2.643663436174393E-003;-2.030840259976685E-004;
2.413500000000000E+009;1.705649346113205E-001;-4.458797350525856E-002;2.538051689043641E-003;-3.332696214783937E-004;
2.413666666666667E+009;1.710986644029617E-001;-4.613124206662178E-002;2.361542545258999E-003;-4.685929743573070E-004;
2.413833333333334E+009;1.714740544557571E-001;-4.768249765038490E-002;2.260653534904122E-003;-5.902185803279281E-004;
2.414000000000000E+009;1.720064729452133E-001;-4.902795702219009E-002;2.134174574166536E-003;-4.102948296349496E-004;
2.414166666666667E+009;1.726471036672592E-001;-5.035099014639854E-002;2.065393840894103E-003;-5.662111216224730E-004;
2.414333333333334E+009;1.731747537851334E-001;-5.172339081764221E-002;2.032449934631586E-003;-6.487077334895730E-004;
2.414500000000000E+009;1.738959252834320E-001;-5.281646177172661E-002;1.960700843483210E-003;-7.351235835812986E-004;
2.414666666666667E+009;1.743011772632599E-001;-5.395671725273132E-002;1.972630852833390E-003;-7.189902244135737E-004;
2.414833333333334E+009;1.749101430177689E-001;-5.495959520339966E-002;1.857614028267562E-003;-9.161319467239082E-004;
2.415000000000000E+009;1.752972155809403E-001;-5.578225851058960E-002;1.767587848007679E-003;-8.783390512689948E-004;
2.415166666666667E+009;1.757738739252091E-001;-5.658607184886932E-002;1.801938051357865E-003;-8.280944311991334E-004;
2.415333333333334E+009;1.762145310640335E-001;-5.749811977148056E-002;1.689788070507348E-003;-8.248917292803526E-004;
2.415500000000000E+009;1.766094267368317E-001;-5.793519690632820E-002;1.567601109854877E-003;-9.321650140918791E-004;
2.415666666666667E+009;1.768188327550888E-001;-5.866995453834534E-002;1.444790512323380E-003;-8.363348315469921E-004;
2.415833333333334E+009;1.772491037845612E-001;-5.910958349704742E-002;1.410051598213613E-003;-8.693038835190237E-004;
2.416000000000000E+009;1.772797107696533E-001;-5.951694771647453E-002;1.337218331173062E-003;-9.032830130308867E-004;
2.416166666666667E+009;1.775565147399902E-001;-6.010344997048378E-002;1.378644024953246E-003;-7.950054714456201E-004;
2.416333333333334E+009;1.774757355451584E-001;-6.036217138171196E-002;1.230597728863359E-003;-8.786089019849896E-004;
2.416500000000000E+009;1.774321049451828E-001;-6.067040190100670E-002;1.241135527379811E-003;-8.823652169667184E-004;
2.416666666666667E+009;1.772345155477524E-001;-6.081453338265419E-002;1.426367089152336E-003;-9.031122317537665E-004;
2.416833333333334E+009;1.771723181009293E-001;-6.121319904923439E-002;1.119966851547360E-003;-9.399625705555081E-004;
2.417000000000000E+009;1.766788959503174E-001;-6.146147847175598E-002;1.211697002872825E-003;-1.099929446354508E-003;
2.417166666666667E+009;1.763874143362045E-001;-6.154518574476242E-002;1.075336127541959E-003;-1.091194804757834E-003;
2.417333333333334E+009;1.759044677019119E-001;-6.163387373089790E-002;1.098797540180385E-003;-9.492555400356650E-004;
2.417500000000000E+009;1.752717494964600E-001;-6.215757876634598E-002;1.122196554206312E-003;-9.147084783762693E-004;
2.417666666666667E+009;1.746981143951416E-001;-6.221243739128113E-002;9.775917278602719E-004;-9.389297920279205E-004;
2.417833333333334E+009;1.739001274108887E-001;-6.251420825719833E-002;8.344022207893431E-004;-9.037303971126676E-004;
2.418000000000000E+009;1.729976236820221E-001;-6.282627582550049E-002;1.040261355228722E-003;-9.570677066221833E-004;
2.418166666666667E+009;1.721477955579758E-001;-6.297105550765991E-002;9.703821851871908E-004;-1.052960404194892E-003;
2.418333333333334E+009;1.713692098855972E-001;-6.341119855642319E-002;9.005063911899924E-004;-1.123316702432931E-003;
2.418500000000000E+009;1.701774746179581E-001;-6.395708024501801E-002;8.748573600314558E-004;-9.836909594014287E-004;
2.418666666666667E+009;1.692525744438171E-001;-6.426721066236496E-002;8.846974233165383E-004;-9.784827707335353E-004;
2.418833333333334E+009;1.680376976728439E-001;-6.487877666950226E-002;7.107440032996237E-004;-9.324667043983936E-004;
2.419000000000000E+009;1.667639315128326E-001;-6.536698341369629E-002;6.160773336887360E-004;-8.866615826264024E-004;
2.419166666666667E+009;1.656879186630249E-001;-6.602151691913605E-002;6.211632862687111E-004;-9.676218032836914E-004;
2.419333333333334E+009;1.643392890691757E-001;-6.662996858358383E-002;5.859504453837872E-004;-1.065513119101524E-003;
2.419500000000000E+009;1.631976962089539E-001;-6.747503578662872E-002;4.453336005099118E-004;-1.029289327561855E-003;
2.419666666666667E+009;1.621025353670120E-001;-6.845073401927948E-002;4.965856787748635E-004;-9.204605012200773E-004;
2.419833333333334E+009;1.607910394668579E-001;-6.928169727325440E-002;4.085052351001650E-004;-9.422437287867069E-004;
2.420000000000000E+009;1.596868485212326E-001;-7.020652294158936E-002;5.251055699773133E-004;-9.293076000176370E-004;
2.420166666666667E+009;1.586183309555054E-001;-7.124246656894684E-002;4.212756757624447E-004;-8.723860955797136E-004;
2.420333333333334E+009;1.574516743421555E-001;-7.268995046615601E-002;3.377402026671916E-004;-9.816330857574940E-004;
2.420500000000000E+009;1.566009074449539E-001;-7.369802892208099E-002;2.576943079475313E-004;-9.518377482891083E-004;
2.420666666666667E+009;1.554441452026367E-001;-7.488201558589935E-002;1.130931777879596E-004;-8.990858914330602E-004;
2.420833333333334E+009;1.545176059007645E-001;-7.625944912433624E-002;1.740952284308150E-004;-8.229391532950103E-004;
2.421000000000000E+009;1.535228490829468E-001;-7.779879122972488E-002;1.407973904861137E-004;-8.445866988040507E-004;
2.421166666666667E+009;1.527889668941498E-001;-7.932571321725845E-002;1.058059133356437E-004;-7.857446325942874E-004;
2.421333333333334E+009;1.520314812660217E-001;-8.088788390159607E-002;1.265156606677920E-004;-6.507879006676376E-004;
2.421500000000000E+009;1.511724740266800E-001;-8.243881911039352E-002;9.736973879626021E-006;-6.238688365556300E-004;
2.421666666666667E+009;1.507181227207184E-001;-8.390198647975922E-002;3.236112024751492E-005;-6.151796551421285E-004;
2.421833333333334E+009;1.503508388996124E-001;-8.565369993448257E-002;4.281508518033661E-005;-5.850985762663186E-004;
2.422000000000000E+009;1.498776227235794E-001;-8.736362308263779E-002;-7.779691804898903E-005;-5.706386873498559E-004;
2.422166666666667E+009;1.495116502046585E-001;-8.903170377016068E-002;-5.838743163621984E-005;-5.224162596277893E-004;
2.422333333333334E+009;1.494487226009369E-001;-9.081461280584335E-002;-8.332496508955956E-005;-4.287353658583015E-004;
2.422500000000000E+009;1.492050588130951E-001;-9.235248714685440E-002;2.904636676248629E-005;-3.219193895347416E-004;
2.422666666666667E+009;1.491574943065643E-001;-9.408529847860336E-002;5.562442311202176E-005;-2.569716889411211E-004;
2.422833333333334E+009;1.492715626955032E-001;-9.597328305244446E-002;-1.254372473340482E-004;-3.056821005884558E-004;
2.423000000000000E+009;1.492815166711807E-001;-9.756013751029968E-002;-1.349196554656373E-005;-2.517155371606350E-004;
2.423166666666667E+009;1.495670825242996E-001;-9.911908954381943E-002;-9.951925312634558E-005;-9.816851525101811E-005;
2.423333333333334E+009;1.497318595647812E-001;-1.005791649222374E-001;7.558025390608236E-005;-2.204755874117836E-004;
2.423500000000000E+009;1.500634849071503E-001;-1.021550297737122E-001;1.016789246932603E-004;-1.534905895823613E-004;
2.423666666666667E+009;1.502069979906082E-001;-1.039260402321816E-001;1.928499696077779E-004;-1.068135952664306E-005;
2.423833333333334E+009;1.507513970136643E-001;-1.053822711110115E-001;9.366037556901574E-005;-2.458320886944421E-005;
2.424000000000000E+009;1.510580033063889E-001;-1.065812334418297E-001;2.765951794572175E-004;-9.309106098953635E-005;
2.424166666666667E+009;1.514733135700226E-001;-1.079317778348923E-001;2.838317886926234E-004;3.923405529349111E-006;
2.424333333333334E+009;1.520792543888092E-001;-1.092142611742020E-001;2.058379177469760E-004;5.607353887171485E-005;
2.424500000000000E+009;1.525582671165466E-001;-1.105243191123009E-001;3.466300840955228E-004;-6.591142300749198E-005;
2.424666666666667E+009;1.531420052051544E-001;-1.114018037915230E-001;3.674100735224783E-004;4.249960329616442E-005;
2.424833333333334E+009;1.534816473722458E-001;-1.125930994749069E-001;4.679377889260650E-004;1.832000416470692E-004;
2.425000000000000E+009;1.539483368396759E-001;-1.135384216904640E-001;4.070452414453030E-004;5.386551492847502E-005;
2.425166666666667E+009;1.542755514383316E-001;-1.144305914640427E-001;5.435844068415463E-004;4.123374310438521E-005;
2.425333333333334E+009;1.548880189657211E-001;-1.151727586984634E-001;6.012493395246565E-004;2.896155820053536E-005;
2.425500000000000E+009;1.551119685173035E-001;-1.159058064222336E-001;6.506596691906452E-004;-1.642556708247867E-005;
2.425666666666667E+009;1.554074734449387E-001;-1.164268925786018E-001;6.722683901898563E-004;8.699917816556990E-005;
2.425833333333334E+009;1.557544916868210E-001;-1.170264631509781E-001;7.570742163807154E-004;-2.929495167336427E-005;
2.426000000000000E+009;1.559998244047165E-001;-1.175369992852211E-001;9.563789935782552E-004;-6.209041748661548E-005;
2.426166666666667E+009;1.562748849391937E-001;-1.180117353796959E-001;7.224645232781768E-004;-2.357643970753998E-004;
2.426333333333334E+009;1.563094705343247E-001;-1.183845400810242E-001;7.497695623897016E-004;-9.132239938480780E-005;
2.426500000000000E+009;1.563618332147598E-001;-1.185289844870567E-001;9.054291876964271E-004;-1.999801461352035E-004;
2.426666666666667E+009;1.563324481248856E-001;-1.187158599495888E-001;8.711963891983032E-004;-2.976484829559922E-004;
2.426833333333334E+009;1.561479866504669E-001;-1.189799159765244E-001;9.428571793250740E-004;-3.285593120381236E-004;
2.427000000000000E+009;1.559259444475174E-001;-1.191698759794235E-001;9.183000074699521E-004;-5.187758943066001E-004;
2.427166666666667E+009;1.554341167211533E-001;-1.191628053784370E-001;9.957980364561081E-004;-5.798670463263989E-004;
2.427333333333334E+009;1.549471318721771E-001;-1.192991435527802E-001;1.060210051946342E-003;-4.964647232554853E-004;
2.427500000000000E+009;1.546695828437805E-001;-1.194292604923248E-001;8.820320945233107E-004;-6.107033113949001E-004;
2.427666666666667E+009;1.539791077375412E-001;-1.196314543485642E-001;9.907253552228212E-004;-6.466587656177580E-004;
2.427833333333334E+009;1.531208753585815E-001;-1.196405962109566E-001;1.069475663825870E-003;-7.120993104763329E-004;
