# Version 1.00
#
freq[Hz];re:Trc1_S11;im:Trc1_S11;re:Trc2_S21;im:Trc2_S21;
2.400000000000000E+009;1.583061516284943E-001;6.306017935276032E-002;-3.967712633311749E-003;1.462715154048055E-004;
2.400166666666667E+009;1.582346111536026E-001;6.153501942753792E-002;-3.917287103831768E-003;2.454272762406617E-004;
2.400333333333334E+009;1.579626202583313E-001;5.949903279542923E-002;-3.977813292294741E-003;3.542993217706680E-004;
2.400500000000000E+009;1.580106168985367E-001;5.782129988074303E-002;-3.916919231414795E-003;4.916313919238746E-004;
2.400666666666667E+009;1.578068882226944E-001;5.565083026885986E-002;-3.922650124877691E-003;5.824611289426684E-004;
2.400833333333334E+009;1.578799039125443E-001;5.388613790273666E-002;-3.974395338445902E-003;6.884183385409415E-004;
2.401000000000000E+009;1.578548997640610E-001;5.170445516705513E-002;-3.937069792300463E-003;8.217803551815450E-004;
2.401166666666667E+009;1.580773741006851E-001;4.976515471935272E-002;-3.936242777854204E-003;8.858609362505376E-004;
2.401333333333334E+009;1.581335216760635E-001;4.744278267025948E-002;-3.897312097251415E-003;1.102748210541904E-003;
2.401500000000000E+009;1.585803031921387E-001;4.552572220563889E-002;-3.970890771597624E-003;1.183711923658848E-003;
2.401666666666667E+009;1.588540971279144E-001;4.351119324564934E-002;-3.894406603649259E-003;1.249681459739804E-003;
2.401833333333334E+009;1.591612696647644E-001;4.146843031048775E-002;-3.810527268797159E-003;1.399943022988737E-003;
2.402000000000000E+009;1.593436151742935E-001;3.943688422441483E-002;-3.798485035076737E-003;1.406476600095630E-003;
2.402166666666667E+009;1.600044965744019E-001;3.739824146032333E-002;-3.748158924281597E-003;1.740963431075215E-003;
2.402333333333334E+009;1.604669839143753E-001;3.552770242094994E-002;-3.772120689973235E-003;1.638667541556060E-003;
2.402500000000000E+009;1.611395925283432E-001;3.365273401141167E-002;-3.669110592454672E-003;1.903500407934189E-003;
2.402666666666667E+009;1.618811786174774E-001;3.171730786561966E-002;-3.685884876176715E-003;2.039557322859764E-003;
2.402833333333334E+009;1.626279354095459E-001;2.997558563947678E-002;-3.622701391577721E-003;2.235695021227002E-003;
2.403000000000000E+009;1.634847670793533E-001;2.843854390084744E-002;-3.540523583069444E-003;2.435869071632624E-003;
2.403166666666667E+009;1.642196625471115E-001;2.674449048936367E-002;-3.547822823747993E-003;2.508944133296609E-003;
2.403333333333334E+009;1.652023047208786E-001;2.528996951878071E-002;-3.319391049444675E-003;2.632733201608062E-003;
2.403500000000000E+009;1.659074127674103E-001;2.368812635540962E-002;-3.369537880644202E-003;2.784584416076541E-003;
2.403666666666667E+009;1.669812649488449E-001;2.234035171568394E-002;-3.190570278093219E-003;2.901801373809576E-003;
2.403833333333334E+009;1.681409329175949E-001;2.102179825305939E-002;-2.981866709887981E-003;3.047507954761386E-003;
2.404000000000000E+009;1.689484864473343E-001;1.984323561191559E-002;-2.944363048300147E-003;3.231224138289690E-003;
2.404166666666667E+009;1.698984205722809E-001;1.859196461737156E-002;-2.876863116398454E-003;3.512252820655704E-003;
2.404333333333334E+009;1.710222661495209E-001;1.749751903116703E-002;-2.793302992358804E-003;3.405195428058505E-003;
2.404500000000000E+009;1.717928200960159E-001;1.637878641486168E-002;-2.689672401174903E-003;3.696204395964742E-003;
2.404666666666667E+009;1.728595048189163E-001;1.549617573618889E-002;-2.580221742391586E-003;3.829762106761336E-003;
2.404833333333334E+009;1.736682504415512E-001;1.467970851808786E-002;-2.250874415040016E-003;3.969258628785610E-003;
2.405000000000000E+009;1.747216582298279E-001;1.391000859439373E-002;-2.015208126977086E-003;3.936991561204195E-003;
2.405166666666667E+009;1.756317466497421E-001;1.307916361838579E-002;-1.970019889995456E-003;4.205736797302961E-003;
2.405333333333334E+009;1.765506118535996E-001;1.249206997454166E-002;-1.763883978128433E-003;4.153781104832888E-003;
2.405500000000000E+009;1.772890239953995E-001;1.203559990972281E-002;-1.365809701383114E-003;4.301595967262983E-003;
2.405666666666667E+009;1.779421716928482E-001;1.150401867926121E-002;-1.425117254257202E-003;4.203171469271183E-003;
2.405833333333334E+009;1.784520298242569E-001;1.114436052739620E-002;-1.120980596169829E-003;4.280573688447475E-003;
2.406000000000000E+009;1.792095601558685E-001;1.062728185206652E-002;-9.612307185307145E-004;4.271068610250950E-003;
2.406166666666667E+009;1.795666068792343E-001;1.038762647658587E-002;-6.764347199350596E-004;4.667883738875389E-003;
2.406333333333334E+009;1.801945120096207E-001;1.007115188986063E-002;-3.512306720949709E-004;4.556433297693729E-003;
2.406500000000000E+009;1.805528253316879E-001;9.711561724543572E-003;-2.783453965093941E-004;4.447013139724731E-003;
2.406666666666667E+009;1.806584596633911E-001;9.420292451977730E-003;-1.105656247091247E-005;4.462921991944313E-003;
2.406833333333334E+009;1.808080673217773E-001;8.989128284156323E-003;2.395177725702524E-004;4.450576379895210E-003;
2.407000000000000E+009;1.810562312602997E-001;8.779450319707394E-003;3.840819699689746E-004;4.425597842782736E-003;
2.407166666666667E+009;1.811814308166504E-001;8.455515839159489E-003;3.916757996194065E-004;4.322106484323740E-003;
2.407333333333334E+009;1.809881031513214E-001;7.945166900753975E-003;7.090480648912489E-004;4.259072244167328E-003;
2.407500000000000E+009;1.808942407369614E-001;7.754066027700901E-003;9.786270093172789E-004;4.173549357801676E-003;
2.407666666666667E+009;1.807004809379578E-001;7.240539882332087E-003;1.020157360471785E-003;4.111529327929020E-003;
2.407833333333334E+009;1.803104728460312E-001;6.534332875162363E-003;1.307755010202527E-003;4.012147430330515E-003;
2.408000000000000E+009;1.798682212829590E-001;6.058071274310350E-003;1.501595834270120E-003;3.935010638087988E-003;
2.408166666666667E+009;1.795358061790466E-001;5.541166756302118E-003;1.502027269452810E-003;3.864368889480829E-003;
2.408333333333334E+009;1.793024688959122E-001;4.936293233186007E-003;1.743674860335887E-003;3.737038234248757E-003;
2.408500000000000E+009;1.786222308874130E-001;3.936629742383957E-003;1.816209638491273E-003;3.575312439352274E-003;
2.408666666666667E+009;1.779861003160477E-001;3.180909203365445E-003;1.816853880882263E-003;3.316670889034867E-003;
2.408833333333334E+009;1.772296428680420E-001;2.329743234440684E-003;1.905940007418394E-003;3.410274628549814E-003;
2.409000000000000E+009;1.766035258769989E-001;1.363878953270614E-003;2.288194140419364E-003;3.119628177955747E-003;
2.409166666666667E+009;1.759398579597473E-001;2.773458545561880E-004;2.269356744363904E-003;3.119126893579960E-003;
2.409333333333334E+009;1.752714067697525E-001;-9.917110437527299E-004;2.326453570276499E-003;2.933675423264504E-003;
2.409500000000000E+009;1.744914352893829E-001;-2.157703740522265E-003;2.335237571969628E-003;2.754024695605040E-003;
2.409666666666667E+009;1.737973242998123E-001;-3.592622466385365E-003;2.366326982155442E-003;2.548832213506103E-003;
2.409833333333334E+009;1.729261279106140E-001;-4.726765211671591E-003;2.406320534646511E-003;2.459673443809152E-003;
2.410000000000000E+009;1.724406331777573E-001;-6.316654849797487E-003;2.554067876189947E-003;2.430707681924105E-003;
2.410166666666667E+009;1.718215644359589E-001;-7.778059225529432E-003;2.638382837176323E-003;2.257498214021325E-003;
2.410333333333334E+009;1.711444705724716E-001;-9.408286772668362E-003;2.720774849876761E-003;2.166557591408491E-003;
2.410500000000000E+009;1.705313026905060E-001;-1.113276928663254E-002;2.700108801946044E-003;2.072216244414449E-003;
2.410666666666667E+009;1.698113232851028E-001;-1.292411051690579E-002;2.751024672761560E-003;1.701885252259672E-003;
2.410833333333334E+009;1.695779711008072E-001;-1.467575132846832E-002;2.803902607411146E-003;1.783085986971855E-003;
2.411000000000000E+009;1.690209209918976E-001;-1.642934419214726E-002;2.890153555199504E-003;1.625665812753141E-003;
2.411166666666667E+009;1.685561984777451E-001;-1.841122843325138E-002;2.816868480294943E-003;1.494668889790773E-003;
2.411333333333334E+009;1.682230234146118E-001;-2.015768550336361E-002;2.808532910421491E-003;1.402409980073571E-003;
2.411500000000000E+009;1.678299456834793E-001;-2.218941226601601E-002;2.776208333671093E-003;1.212604460306466E-003;
2.411666666666667E+009;1.679739505052567E-001;-2.412433736026287E-002;2.809634897857904E-003;1.086045987904072E-003;
2.411833333333334E+009;1.677440851926804E-001;-2.589485794305801E-002;2.794766100123525E-003;1.101568923331797E-003;
2.412000000000000E+009;1.678595542907715E-001;-2.801259048283100E-002;2.881468273699284E-003;8.083382854238153E-004;
2.412166666666667E+009;1.678179800510407E-001;-2.999515086412430E-002;2.810571109876037E-003;6.833547959104180E-004;
2.412333333333334E+009;1.679855287075043E-001;-3.176898136734963E-002;2.841437933966517E-003;6.608375697396696E-004;
2.412500000000000E+009;1.682728677988052E-001;-3.376268222928047E-002;2.840462373569608E-003;5.026440485380590E-004;
2.412666666666667E+009;1.684383451938629E-001;-3.575662523508072E-002;2.830340526998043E-003;4.125917330384255E-004;
2.412833333333334E+009;1.688271313905716E-001;-3.746900707483292E-002;2.775833243504167E-003;3.803750150837004E-004;
2.413000000000000E+009;1.690613329410553E-001;-3.941455483436585E-002;2.753497101366520E-003;1.442148350179195E-004;
2.413166666666667E+009;1.695187389850617E-001;-4.095834866166115E-002;2.724978374317288E-003;1.024735247483477E-004;
2.413333333333334E+009;1.698538661003113E-001;-4.270728677511215E-002;2.492631785571575E-003;-1.487061945226742E-005;
2.413500000000000E+009;1.705416589975357E-001;-4.453988000750542E-002;2.475221175700426E-003;-1.586638099979609E-004;
2.413666666666667E+009;1.711019575595856E-001;-4.604007303714752E-002;2.522845286875963E-003;-2.989817294292152E-004;
2.413833333333334E+009;1.715365052223206E-001;-4.747013375163078E-002;2.405265113338828E-003;-3.574237052816898E-004;
2.414000000000000E+009;1.719172596931458E-001;-4.909297078847885E-002;2.325230976566672E-003;-3.679137153085321E-004;
2.414166666666667E+009;1.726312488317490E-001;-5.017533898353577E-002;2.287618117406964E-003;-4.963036626577377E-004;
2.414333333333334E+009;1.730157881975174E-001;-5.160312727093697E-002;2.194626722484827E-003;-5.096928216516972E-004;
2.414500000000000E+009;1.738583743572235E-001;-5.277745798230171E-002;2.106800442561507E-003;-4.400195030029863E-004;
2.414666666666667E+009;1.743264049291611E-001;-5.382301658391953E-002;1.994048478081822E-003;-6.872338708490133E-004;
2.414833333333334E+009;1.747983098030090E-001;-5.487130209803581E-002;1.997315324842930E-003;-6.960838218219578E-004;
2.415000000000000E+009;1.752593070268631E-001;-5.577614158391953E-002;1.802272745408118E-003;-7.469416595995426E-004;
2.415166666666667E+009;1.756634414196014E-001;-5.654320493340492E-002;1.773966825567186E-003;-7.632365450263023E-004;
2.415333333333334E+009;1.761702150106430E-001;-5.727533996105194E-002;1.869370811618865E-003;-7.754469406791031E-004;
2.415500000000000E+009;1.765571236610413E-001;-5.793493613600731E-002;1.633126055821776E-003;-8.699923637323082E-004;
2.415666666666667E+009;1.768436729907990E-001;-5.857047811150551E-002;1.509681344032288E-003;-6.750673055648804E-004;
2.415833333333334E+009;1.772318780422211E-001;-5.909190699458122E-002;1.528403838165104E-003;-7.399041205644608E-004;
2.416000000000000E+009;1.771079450845718E-001;-5.959359928965569E-002;1.509659923613071E-003;-8.325624512508512E-004;
2.416166666666667E+009;1.774894297122955E-001;-5.996289849281311E-002;1.474098418839276E-003;-9.735278435982764E-004;
2.416333333333334E+009;1.774407774209976E-001;-6.035260111093521E-002;1.439922722056508E-003;-9.195532184094191E-004;
2.416500000000000E+009;1.775145828723908E-001;-6.075930222868919E-002;1.204923028126359E-003;-1.063246629200876E-003;
2.416666666666667E+009;1.772464215755463E-001;-6.080402061343193E-002;1.216424163430929E-003;-8.438528166152537E-004;
2.416833333333334E+009;1.771725267171860E-001;-6.132702156901360E-002;1.182681648060679E-003;-1.011784770525992E-003;
2.417000000000000E+009;1.766577363014221E-001;-6.141455844044685E-002;1.215892145410180E-003;-9.074630797840655E-004;
2.417166666666667E+009;1.763232201337814E-001;-6.153091415762901E-002;1.133387442678213E-003;-9.348790044896305E-004;
2.417333333333334E+009;1.758623123168945E-001;-6.166875734925270E-002;8.796539623290300E-004;-9.604018996469677E-004;
2.417500000000000E+009;1.752611547708511E-001;-6.219690665602684E-002;1.055289176292718E-003;-9.733039769344032E-004;
2.417666666666667E+009;1.746421754360199E-001;-6.218568608164787E-002;8.231860701926053E-004;-1.000210177153349E-003;
2.417833333333334E+009;1.738365292549133E-001;-6.251298636198044E-002;1.034136279486120E-003;-8.794732275418937E-004;
2.418000000000000E+009;1.729872822761536E-001;-6.278450787067413E-002;1.094890641979873E-003;-1.079317764379084E-003;
2.418166666666667E+009;1.720398366451263E-001;-6.293183565139771E-002;7.864063372835517E-004;-1.053692772984505E-003;
2.418333333333334E+009;1.714025586843491E-001;-6.353981047868729E-002;8.384914835914969E-004;-9.622523793950677E-004;
2.418500000000000E+009;1.702616214752197E-001;-6.385551393032074E-002;8.585697505623102E-004;-9.421603172086179E-004;
2.418666666666667E+009;1.692810356616974E-001;-6.444893032312393E-002;7.213677745312452E-004;-9.576468728482723E-004;
2.418833333333334E+009;1.680407971143723E-001;-6.489642709493637E-002;7.070451974868774E-004;-9.621329372748733E-004;
2.419000000000000E+009;1.667684465646744E-001;-6.526135653257370E-002;7.254704250954092E-004;-8.546600583940744E-004;
2.419166666666667E+009;1.656387895345688E-001;-6.614795327186585E-002;6.462830933742225E-004;-9.840955026447773E-004;
2.419333333333334E+009;1.642555147409439E-001;-6.655372679233551E-002;5.036501679569483E-004;-1.015516696497798E-003;
2.419500000000000E+009;1.631392836570740E-001;-6.750192493200302E-002;4.813551204279065E-004;-1.057762070558965E-003;
2.419666666666667E+009;1.620388925075531E-001;-6.840325146913528E-002;3.998557513114065E-004;-9.590766858309507E-004;
2.419833333333334E+009;1.606625765562058E-001;-6.926508992910385E-002;4.123200196772814E-004;-9.435840183869004E-004;
2.420000000000000E+009;1.598324477672577E-001;-7.031820714473724E-002;3.569615655578673E-004;-9.448528289794922E-004;
2.420166666666667E+009;1.585551202297211E-001;-7.134748995304108E-002;4.753440443892032E-004;-9.007922490127385E-004;
2.420333333333334E+009;1.574496179819107E-001;-7.250760495662689E-002;3.167941176798195E-004;-8.945722365751863E-004;
2.420500000000000E+009;1.565190851688385E-001;-7.374703884124756E-002;4.111849702894688E-004;-9.108277736231685E-004;
2.420666666666667E+009;1.553754955530167E-001;-7.497211545705795E-002;2.140357828466222E-004;-9.511322714388371E-004;
2.420833333333334E+009;1.544859260320664E-001;-7.635695487260819E-002;3.046653291676194E-004;-9.362166165374219E-004;
2.421000000000000E+009;1.534018069505692E-001;-7.784654945135117E-002;2.049935865215957E-004;-8.728588582016528E-004;
2.421166666666667E+009;1.527744978666306E-001;-7.923585921525955E-002;1.972114550881088E-004;-8.566518663428724E-004;
2.421333333333334E+009;1.520810127258301E-001;-8.087049424648285E-002;-1.896369553833210E-006;-7.107403362169862E-004;
2.421500000000000E+009;1.512872725725174E-001;-8.240155875682831E-002;1.339038135483861E-004;-8.154004462994635E-004;
2.421666666666667E+009;1.508090198040009E-001;-8.398174494504929E-002;2.416996903775726E-005;-6.594134029000998E-004;
2.421833333333334E+009;1.503963023424149E-001;-8.562806248664856E-002;-5.144169790582964E-006;-6.860927096568048E-004;
2.422000000000000E+009;1.498998254537582E-001;-8.732809871435165E-002;-3.451747397775762E-005;-6.445955950766802E-004;
2.422166666666667E+009;1.495747566223145E-001;-8.907958120107651E-002;-1.005957237794064E-004;-4.743412137031555E-004;
2.422333333333334E+009;1.495278626680374E-001;-9.086561948060989E-002;-6.931534881005064E-005;-4.134848713874817E-004;
2.422500000000000E+009;1.493156701326370E-001;-9.247290343046188E-002;-4.729580541606993E-005;-4.080902435816824E-004;
2.422666666666667E+009;1.491595506668091E-001;-9.409026056528091E-002;-8.167719352059066E-005;-4.617994127329439E-004;
2.422833333333334E+009;1.492511928081513E-001;-9.586860984563828E-002;-5.030953161622165E-006;-3.026991907972843E-004;
2.423000000000000E+009;1.491160392761231E-001;-9.749443829059601E-002;-9.508344191999640E-006;-2.890489704441279E-004;
2.423166666666667E+009;1.495404690504074E-001;-9.908198565244675E-002;6.619365740334615E-005;-2.630410599522293E-004;
2.423333333333334E+009;1.499503254890442E-001;-1.005430072546005E-001;-1.928568963194266E-005;-1.661600399529561E-004;
2.423500000000000E+009;1.501237452030182E-001;-1.022613197565079E-001;3.537125667207874E-005;-1.143994231824763E-004;
2.423666666666667E+009;1.503384858369827E-001;-1.039028763771057E-001;2.176880661863834E-004;-1.079350331565365E-004;
2.423833333333334E+009;1.508334577083588E-001;-1.053629443049431E-001;1.676550309639424E-004;-1.336935674771667E-004;
2.424000000000000E+009;1.511403769254684E-001;-1.065684109926224E-001;2.811613085214049E-004;1.060818613041192E-005;
2.424166666666667E+009;1.516022384166718E-001;-1.080676242709160E-001;2.808751887641847E-004;-1.774677512003109E-004;
2.424333333333334E+009;1.522083580493927E-001;-1.092839464545250E-001;2.980982535518706E-004;-1.670241472311318E-004;
2.424500000000000E+009;1.525867879390717E-001;-1.104333326220512E-001;3.012870438396931E-004;-1.191774208564311E-004;
2.424666666666667E+009;1.531762629747391E-001;-1.112989410758019E-001;5.434797494672239E-004;-6.667935667792335E-005;
2.424833333333334E+009;1.535534113645554E-001;-1.124987676739693E-001;4.929865826852620E-004;9.867057815426961E-005;
2.425000000000000E+009;1.539866626262665E-001;-1.135667935013771E-001;3.588443214539439E-004;2.711563320190180E-005;
2.425166666666667E+009;1.543543934822083E-001;-1.143262609839439E-001;5.267188535071909E-004;-2.990615939779673E-005;
2.425333333333334E+009;1.548463851213455E-001;-1.150531545281410E-001;4.919167258776724E-004;5.051101470598951E-005;
2.425500000000000E+009;1.553286910057068E-001;-1.158754006028175E-001;6.705016712658107E-004;-1.891641586553305E-004;
2.425666666666667E+009;1.553997844457626E-001;-1.164114698767662E-001;5.990660283714533E-004;-1.051119106705301E-004;
2.425833333333334E+009;1.558834016323090E-001;-1.170490607619286E-001;6.966338842175901E-004;-1.505626278230920E-004;
2.426000000000000E+009;1.559530645608902E-001;-1.176104322075844E-001;8.382194209843874E-004;-2.376533084316179E-004;
2.426166666666667E+009;1.563837975263596E-001;-1.181037798523903E-001;7.625437574461103E-004;-1.821087353164330E-004;
2.426333333333334E+009;1.562025099992752E-001;-1.183942705392838E-001;7.225564913824201E-004;-1.072088198270649E-004;
2.426500000000000E+009;1.562806963920593E-001;-1.185645312070847E-001;8.583095623180270E-004;-4.307677154429257E-004;
2.426666666666667E+009;1.563428789377213E-001;-1.187056452035904E-001;7.136255735531449E-004;-4.389229288790375E-004;
2.426833333333334E+009;1.562110185623169E-001;-1.190338209271431E-001;9.389749029651284E-004;-3.855857357848436E-004;
2.427000000000000E+009;1.558030843734741E-001;-1.193155646324158E-001;8.608073694631457E-004;-3.981383924838156E-004;
2.427166666666667E+009;1.555790156126022E-001;-1.192243173718453E-001;8.821497904136777E-004;-5.437933723442257E-004;
2.427333333333334E+009;1.549911797046661E-001;-1.194359660148621E-001;9.152116253972054E-004;-5.754115409217775E-004;
2.427500000000000E+009;1.545621007680893E-001;-1.195812076330185E-001;8.816163172014058E-004;-5.277236341498792E-004;
2.427666666666667E+009;1.538239419460297E-001;-1.196866780519486E-001;9.631846332922578E-004;-5.876447539776564E-004;
2.427833333333334E+009;1.530622690916061E-001;-1.196470633149147E-001;7.632550550624728E-004;-5.539512494578958E-004;
